7.528761061946902, 0.4491150442477876, -6.188053097345119, -4.170353982300881, -17.92035398230088, -7.1526548672566435, 41.7920353982301, -30.949115044247776, 2.995575221238937, -38.676991150442475, -22.1509009009009, -59.913953488372094, -34.71618625277162, -107.40789473684211, -18.463414634146346, -5.628318584070796, 8.371681415929203, -20.920353982300885, -0.1415929203539823, 0.0, -2.0353982300884965, -0.0022123893805309734, -0.011061946902654867, -0.011061946902654867, -0.004424778761061947, -0.004424778761061947, -0.008849557522123894, -5.619469026548672, -14.336283185840706, 7.407079646017699, -0.4336283185840708, -0.1504424778761062, -7.63716814159292, -0.017699115044247787, -0.028761061946902654, -0.0022123893805309734, -0.004424778761061947, -0.004424778761061947, -0.015486725663716814, 55.97345132743363, -41.982300884955755, -20.327433628318584, -2.3008849557522124, -0.3185840707964602, -30.513274336283185, -0.0022123893805309734, -0.035398230088495575, -0.0022123893805309734, -0.017699115044247787, -0.011061946902654867, -0.004424778761061947, 2.637168141592923, -19.327433628318584, -7.79646017699115, -2.8230088495575223, -0.07079646017699115, -31.23008849557522, -0.011061946902654867, -0.004424778761061947, -0.004424778761061947, -0.004424778761061947, -0.004424778761061947, -0.008849557522123894, -10.274336283185841, 20.424778761061944, -19.84070796460177, -0.8141592920353983, 0.0, -3.3008849557522133, 0.0, -0.017699115044247787, -0.0022123893805309734, -0.0022123893805309734, -0.00663716814159292, -0.0022123893805309734, -7.477876106194691, -30.4070796460177, 16.20353982300885, -0.7699115044247787, -0.22123893805309736, -17.876106194690266, -0.004424778761061947, -0.024336283185840708, 0.0, -0.0022123893805309734, -0.0022123893805309734, -0.0022123893805309734, -12.601769911504425, -3.840707964601769, 9.876106194690266, -3.9911504424778763, -0.11504424778761062, -10.72566371681416, -0.00663716814159292, -0.015486725663716814, -0.008849557522123894, -0.008849557522123894, -0.011061946902654867, -0.022123893805309734, -6.327433628318584, -1.6106194690265454, 8.389380530973455, -2.0353982300884956, -0.17699115044247787, -2.628318584070797, -0.008849557522123894, -0.008849557522123894, -0.01327433628318584, -0.008849557522123894, -0.008849557522123894, -0.017699115044247787, -3.814159292035398, -2.4601769911504405, 2.3185840707964616, -0.5398230088495575, -0.13274336283185842, -3.734513274336283, -0.024336283185840708, -0.004424778761061947, -0.00663716814159292, -0.008849557522123894, -0.00663716814159292, -0.011061946902654867, -3.2389380530973453, -6.079646017699112, 5.584070796460175, -0.5221238938053098, -0.12389380530973451, -3.044247787610619, -0.004424778761061947, -0.01327433628318584, 0.0, 0.0, -0.004424778761061947, -0.017699115044247787, -4.946902654867257, -2.9115044247787623, 0.053097345132741225, -0.2831858407079646, 0.0, -7.9646017699115035, 0.0, -0.00663716814159292, 0.0, -0.0022123893805309734, 0.0, -0.00663716814159292, -6.716814159292035, -6.238938053097343, 7.690265486725664, -0.1504424778761062, 0.0, -8.168141592920357, -0.0022123893805309734, -0.0022123893805309734, -0.004424778761061947, 0.0, 0.0, -0.011061946902654867, 0.10707964601769909, 0.1929203539823009, -0.013053097345132159, 1.0256637168141594, -0.006858407079646017, 0.0, 0.2528761061946906, 0.6146017699115046, 4.15575221238938, 6.7816371681415895, -0.37876106194690273, 0.2482300884955753, -3.369247787610619, 0.03473451327433619, -0.019469026548672573, 0.005973451327433629, -0.3820796460176985, -0.17500000000000004, -11.155530973451306, -13.958628318584061, -0.3794247787610619, -1.4940265486725666, -3.492256637168138, 1.7396017699115043, -0.15398230088495574, 0.01327433628318584, -0.8276548672566373, -0.7528761061946904, -11.670796460176991, -16.790044247787613, 0.8528761061946903, 0.23407079646017515, -0.9000000000000006, 1.1469026548672572, -0.11283185840707964, 0.0008849557522123895, 0.567256637168142, 0.043805309734512576, 3.6307522123893836, 5.399115044247779, -0.04469026548672572, 0.45398230088495567, 0.35044247787610505, 1.240929203539823, -0.02809734513274336, 0.0, 0.29734513274336294, 0.4984513274336282, 6.649778761061946, 9.220575221238938, -0.5988938053097345, 0.36371681415929213, -3.76216814159292, -0.08207964601769913, -0.05132743362831858, 0.019247787610619467, -1.0803097345132748, -0.5681415929203542, -11.17610619469026, -15.918362831858412, -0.2592920353982301, 1.4201327433628315, -1.1336283185840712, -0.7453539823008875, -0.31769911504424786, 0.008849557522123894, 0.43053097345132774, -1.1761061946902658, 0.3384955752212484, -10.118805309734517, -0.9639380530973454, 0.9143805309734514, -0.9778761061946906, 0.4488938053097389, -0.18141592920353983, 0.01592920353982301, 0.5984513274336283, -1.5179203539822996, 0.48274336283185804, -19.445796460176982, -1.0681415929203542, 0.6535398230088495, -0.8396017699115061, 2.9506637168141756, -0.032964601769911506, 0.013495575221238938, 0.37323008849557515, -2.7946902654867216, 6.869026548672567, -27.02278761061948, -0.5011061946902655, 0.297566371681416, -4.839380530973449, 2.0345132743362884, -0.025663716814159295, 0.0028761061946902654, -0.04778761061946879, -2.235840707964603, -8.081194690265495, -29.428539823008848, -0.21460176991150426, 0.277212389380531, -4.569911504424776, 1.2075221238938059, -0.016814159292035398, 0.0, -0.24668141592920362, -1.0221238938053105, -7.7400442477875995, -19.77146017699117, -0.09756637168141535, 0.27898230088495585, -3.0480088495575153, 0.5573008849557536, -0.003982300884955752, 0.0, -0.21482300884955768, -0.12234513274336245, -7.72610619469028, -11.573230088495592, 0.0
-0.4712389380530979, -0.5508849557522124, 3.8119469026548813, 11.829646017699119, -1.920353982300881, -5.1526548672566435, -21.207964601769902, 81.05088495575222, 5.995575221238937, -96.67699115044248, 80.8490990990991, 19.086046511627906, -100.71618625277162, 145.5921052631579, 22.536585365853654, -5.628318584070796, 0.3716814159292028, 11.079646017699115, -0.1415929203539823, 0.0, 5.9646017699115035, -0.0022123893805309734, -0.011061946902654867, -0.011061946902654867, -0.004424778761061947, -0.004424778761061947, -0.008849557522123894, -5.619469026548672, -38.336283185840706, 47.4070796460177, -0.4336283185840708, -0.1504424778761062, -23.63716814159292, -0.017699115044247787, -0.028761061946902654, -0.0022123893805309734, -0.004424778761061947, -0.004424778761061947, -0.015486725663716814, -16.02654867256637, -21.982300884955755, 35.67256637168141, -2.3008849557522124, -0.3185840707964602, -22.513274336283185, -0.0022123893805309734, -0.035398230088495575, -0.0022123893805309734, -0.017699115044247787, -0.011061946902654867, -0.004424778761061947, -9.362831858407077, 16.672566371681416, -7.79646017699115, -2.8230088495575223, -0.07079646017699115, 12.76991150442478, -0.011061946902654867, -0.004424778761061947, -0.004424778761061947, -0.004424778761061947, -0.004424778761061947, -0.008849557522123894, -10.274336283185841, 8.424778761061944, -19.84070796460177, -0.8141592920353983, 0.0, 4.699115044247787, 0.0, -0.017699115044247787, -0.0022123893805309734, -0.0022123893805309734, -0.00663716814159292, -0.0022123893805309734, 52.52212389380531, -50.4070796460177, -19.79646017699115, -0.7699115044247787, -0.22123893805309736, -29.876106194690266, -0.004424778761061947, -0.024336283185840708, 0.0, -0.0022123893805309734, -0.0022123893805309734, -0.0022123893805309734, 51.39823008849557, -23.84070796460177, -42.123893805309734, -3.9911504424778763, -0.11504424778761062, -18.72566371681416, -0.00663716814159292, -0.015486725663716814, -0.008849557522123894, -0.008849557522123894, -0.011061946902654867, -0.022123893805309734, 73.67256637168141, -33.610619469026545, -43.610619469026545, -2.0353982300884956, -0.17699115044247787, -22.628318584070797, 0.9911504424778761, -0.008849557522123894, -0.01327433628318584, -0.008849557522123894, -0.008849557522123894, -0.017699115044247787, 76.1858407079646, -42.46017699115044, -41.68141592920354, -0.5398230088495575, -0.13274336283185842, -27.734513274336283, 0.9756637168141593, -0.004424778761061947, -0.00663716814159292, -0.008849557522123894, -0.00663716814159292, -0.011061946902654867, -3.2389380530973453, -30.079646017699112, 13.584070796460175, -0.5221238938053098, -0.12389380530973451, -23.04424778761062, -0.004424778761061947, -0.01327433628318584, 0.0, 0.0, -0.004424778761061947, -0.017699115044247787, -4.946902654867257, -6.911504424778762, 16.05309734513274, -0.2831858407079646, 0.0, -7.9646017699115035, 0.0, -0.00663716814159292, 0.0, -0.0022123893805309734, 0.0, -0.00663716814159292, -6.716814159292035, -6.238938053097343, 23.690265486725664, -0.1504424778761062, 0.0, -0.1681415929203567, -0.0022123893805309734, -0.0022123893805309734, -0.004424778761061947, 0.0, 0.0, -0.011061946902654867, -0.49292035398230083, 0.1929203539823009, -0.9130530973451325, -0.1743362831858406, -0.006858407079646017, 0.0, -0.2471238938053094, -1.6853982300884955, -2.544247787610619, -16.918362831858413, 0.5212389380530973, 0.2482300884955753, -6.7692477876106185, -3.165265486725664, -0.019469026548672573, 0.005973451327433629, -0.08207964601769846, -0.775, -31.955530973451307, -34.35862831858406, 1.0205752212389383, 1.0059734513274334, -2.892256637168138, -7.1603982300884965, -0.15398230088495574, 0.01327433628318584, 0.17234513274336272, 0.4471238938053097, -26.97079646017699, -19.69004424778761, -0.04712389380530965, 3.9340707964601753, 0.49999999999999933, 1.1469026548672572, -0.11283185840707964, 0.0008849557522123895, 0.16725663716814199, 0.7438053097345126, 15.830752212389383, 18.49911504424778, -0.6446902654867257, 0.45398230088495567, 3.650442477876105, 1.240929203539823, -0.02809734513274336, 0.0, -0.30265486725663715, -1.0015486725663718, 12.949778761061946, 2.02057522123894, 0.5011061946902655, -6.436283185840708, -4.86216814159292, 1.3179203539823008, -0.05132743362831858, 0.019247787610619467, 0.019690265486725256, -0.2681415929203541, -30.176106194690256, -29.41836283185841, 0.2407079646017699, -5.879867256637168, -1.6336283185840712, 6.554646017699112, -0.31769911504424786, 0.008849557522123894, 0.43053097345132774, -0.9761061946902658, -4.561504424778754, -17.11880530973452, 0.03606194690265463, -7.785619469026548, -3.9778761061946906, 9.048893805309739, -0.18141592920353983, 0.01592920353982301, -0.4015486725663717, -3.2179203539823, -16.81725663716814, -52.345796460176985, 0.1318584070796458, -9.54646017699115, -8.039601769911506, 10.150663716814176, -0.032964601769911506, 0.013495575221238938, 0.07323008849557514, -3.2946902654867216, -32.53097345132743, -65.92278761061948, 0.5988938053097345, 0.297566371681416, -11.13938053097345, -1.865486725663712, -0.025663716814159295, 0.0028761061946902654, -0.04778761061946879, -2.135840707964603, -34.4811946902655, -52.728539823008845, 0.28539823008849574, 0.277212389380531, -9.469911504424775, -1.4924778761061939, -0.016814159292035398, 0.0, 0.05331858407079637, -1.3221238938053106, -28.2400442477876, -38.071460176991174, 0.20243362831858466, 0.27898230088495585, -6.7480088495575155, -0.8426991150442462, -0.003982300884955752, 0.0, -0.014823008849557673, -0.7223451327433625, -20.226106194690278, -23.77323008849559, 0.0
12.528761061946902, -0.5508849557522124, -6.188053097345119, -0.17035398230088106, 19.07964601769912, 24.847345132743357, 20.792035398230098, 28.050884955752224, -5.004424778761063, -69.67699115044248, 90.8490990990991, 48.913953488372094, -56.71618625277162, 152.5921052631579, -14.463414634146346, -5.628318584070796, 12.371681415929203, 19.079646017699115, -0.1415929203539823, 0.0, 9.964601769911503, -0.0022123893805309734, -0.011061946902654867, -0.011061946902654867, -0.004424778761061947, 0.995575221238938, -0.008849557522123894, -5.619469026548672, -2.3362831858407063, 31.4070796460177, -0.4336283185840708, -0.1504424778761062, -3.6371681415929196, -0.017699115044247787, -0.028761061946902654, -0.0022123893805309734, -0.004424778761061947, -0.004424778761061947, -0.015486725663716814, -16.02654867256637, -9.982300884955755, 35.67256637168141, -2.3008849557522124, -0.3185840707964602, -14.513274336283185, -0.0022123893805309734, -0.035398230088495575, -0.0022123893805309734, -0.017699115044247787, -0.011061946902654867, -0.004424778761061947, 26.637168141592923, 24.672566371681416, -7.79646017699115, -2.8230088495575223, -0.07079646017699115, 52.76991150442478, -0.011061946902654867, -0.004424778761061947, -0.004424778761061947, -0.004424778761061947, -0.004424778761061947, -0.008849557522123894, 9.725663716814159, 8.424778761061944, -19.84070796460177, -0.8141592920353983, 0.0, 20.699115044247787, 0.0, -0.017699115044247787, -0.0022123893805309734, -0.0022123893805309734, -0.00663716814159292, -0.0022123893805309734, -7.477876106194691, -6.407079646017699, 40.20353982300885, -0.7699115044247787, -0.22123893805309736, -1.8761061946902657, -0.004424778761061947, -0.024336283185840708, 0.0, -0.0022123893805309734, -0.0022123893805309734, -0.0022123893805309734, 67.39823008849558, -23.84070796460177, -42.123893805309734, -3.9911504424778763, -0.11504424778761062, -18.72566371681416, -0.00663716814159292, -0.015486725663716814, -0.008849557522123894, -0.008849557522123894, -0.011061946902654867, -0.022123893805309734, 89.67256637168141, -33.610619469026545, -43.610619469026545, -2.0353982300884956, -0.17699115044247787, -22.628318584070797, -0.008849557522123894, -0.008849557522123894, -0.01327433628318584, -0.008849557522123894, -0.008849557522123894, -0.017699115044247787, 92.1858407079646, -42.46017699115044, -41.68141592920354, -0.5398230088495575, -0.13274336283185842, -27.734513274336283, 0.9756637168141593, -0.004424778761061947, -0.00663716814159292, -0.008849557522123894, -0.00663716814159292, -0.011061946902654867, -3.2389380530973453, -2.079646017699112, 9.584070796460175, -0.5221238938053098, -0.12389380530973451, 0.9557522123893811, -0.004424778761061947, -0.01327433628318584, 0.0, 0.0, -0.004424778761061947, -0.017699115044247787, -4.946902654867257, 13.088495575221238, 24.05309734513274, -0.2831858407079646, 0.0, 12.035398230088497, 0.0, -0.00663716814159292, 0.0, -0.0022123893805309734, 0.0, -0.00663716814159292, -6.716814159292035, 13.761061946902657, 31.690265486725664, -0.1504424778761062, 0.0, 11.831858407079643, -0.0022123893805309734, -0.0022123893805309734, -0.004424778761061947, 0.0, 0.0, -0.011061946902654867, -0.7929203539823009, 0.1929203539823009, 4.2869469026548686, -1.0743362831858407, -0.006858407079646017, 0.0, 0.05287610619469052, -2.0853982300884955, 14.85575221238938, -1.7183628318584105, 0.2212389380530973, 0.2482300884955753, -4.469247787610619, -3.165265486725664, -0.019469026548672573, 0.005973451327433629, -0.4820796460176985, -0.2749999999999999, -21.655530973451306, -23.15862831858406, 1.1205752212389382, 1.0059734513274334, -2.092256637168138, -10.360398230088496, -0.15398230088495574, 0.01327433628318584, -1.0276548672566372, 1.6471238938053097, -34.270796460176996, -19.590044247787613, -0.14712389380530966, 0.03407079646017497, 1.4999999999999993, 1.1469026548672572, -0.11283185840707964, 0.0008849557522123895, 1.1672566371681419, 1.9438053097345127, 2.1307522123893836, 18.39911504424778, -0.6446902654867257, -0.1460176991150443, 6.950442477876106, 1.240929203539823, -0.02809734513274336, 0.0, 0.0973451327433629, -1.7015486725663718, 20.949778761061946, 4.320575221238939, 0.7011061946902655, 0.36371681415929213, -3.0621681415929203, -5.6820796460177, -0.05132743362831858, 0.019247787610619467, -1.0803097345132748, 0.33185840707964587, -26.87610619469026, -20.41836283185841, 0.44070796460177, -8.679867256637168, -1.6336283185840712, 6.554646017699112, -0.31769911504424786, 0.008849557522123894, 0.7305309734513277, 0.8238938053097342, -21.66150442477875, -13.118805309734517, 1.0360619469026546, -11.285619469026548, -3.9778761061946906, 9.048893805309739, -0.18141592920353983, 0.01592920353982301, 0.6984513274336283, -0.9179203539822998, -40.517256637168146, -49.445796460176986, 1.831858407079646, -14.846460176991151, -8.039601769911506, 10.150663716814176, -0.032964601769911506, 0.013495575221238938, 0.5732300884955752, -1.2946902654867216, -66.13097345132743, -77.22278761061948, 0.8988938053097345, 0.297566371681416, -9.439380530973448, 1.2345132743362885, -0.025663716814159295, 0.0028761061946902654, -0.14778761061946877, -1.635840707964603, -19.881194690265495, -30.528539823008845, 0.28539823008849574, 0.277212389380531, -1.1699115044247765, -3.492477876106194, -0.016814159292035398, 0.0, -0.24668141592920362, -1.1221238938053104, -9.940044247787599, -17.67146017699117, 0.0024336283185846797, 0.27898230088495585, 0.4519911504424847, -2.642699115044246, -0.003982300884955752, 0.0, -0.11482300884955765, -0.9223451327433625, -1.2261061946902778, -7.273230088495591, 0.0
12.528761061946902, -0.5508849557522124, -6.188053097345119, -16.17035398230088, 3.079646017699119, -27.152654867256643, -8.207964601769902, 75.05088495575222, -21.004424778761063, 40.323008849557525, 16.8490990990991, 29.086046511627906, 32.28381374722838, -91.40789473684211, 0.5365853658536537, -5.628318584070796, 0.3716814159292028, -20.920353982300885, -0.1415929203539823, 0.0, -2.0353982300884965, -0.0022123893805309734, -0.011061946902654867, -0.011061946902654867, -0.004424778761061947, -0.004424778761061947, -0.008849557522123894, 18.38053097345133, -6.336283185840706, -20.5929203539823, -0.4336283185840708, -0.1504424778761062, 16.36283185840708, -0.017699115044247787, -0.028761061946902654, -0.0022123893805309734, -0.004424778761061947, -0.004424778761061947, -0.015486725663716814, 11.97345132743363, 14.017699115044245, -20.327433628318584, -2.3008849557522124, -0.3185840707964602, 17.486725663716815, -0.0022123893805309734, -0.035398230088495575, -0.0022123893805309734, -0.017699115044247787, -0.011061946902654867, -0.004424778761061947, -45.36283185840708, 4.672566371681416, 40.20353982300885, -2.8230088495575223, -0.07079646017699115, -19.23008849557522, -0.011061946902654867, -0.004424778761061947, -0.004424778761061947, -0.004424778761061947, -0.004424778761061947, -0.008849557522123894, -10.274336283185841, -15.575221238938056, 36.15929203539823, -0.8141592920353983, 0.0, -11.300884955752213, 0.0, -0.017699115044247787, -0.0022123893805309734, -0.0022123893805309734, -0.00663716814159292, -0.0022123893805309734, 16.522123893805308, 1.5929203539823007, -19.79646017699115, -0.7699115044247787, -0.22123893805309736, 18.123893805309734, -0.004424778761061947, -0.024336283185840708, 0.0, -0.0022123893805309734, -0.0022123893805309734, -0.0022123893805309734, -12.601769911504425, -3.840707964601769, 17.876106194690266, -3.9911504424778763, -0.11504424778761062, -6.725663716814161, -0.00663716814159292, -0.015486725663716814, 0.9911504424778761, -0.008849557522123894, -0.011061946902654867, -0.022123893805309734, -6.327433628318584, -9.610619469026545, 12.389380530973455, -2.0353982300884956, -0.17699115044247787, -10.628318584070797, -0.008849557522123894, -0.008849557522123894, -0.01327433628318584, -0.008849557522123894, -0.008849557522123894, -0.017699115044247787, -3.814159292035398, 9.53982300884956, -17.68141592920354, -0.5398230088495575, -0.13274336283185842, 12.265486725663717, 0.9756637168141593, -0.004424778761061947, -0.00663716814159292, -0.008849557522123894, -0.00663716814159292, -0.011061946902654867, 16.761061946902654, -2.079646017699112, -2.415929203539825, -0.5221238938053098, -0.12389380530973451, 16.95575221238938, -0.004424778761061947, -0.01327433628318584, 0.0, 0.0, -0.004424778761061947, -0.017699115044247787, 19.05309734513274, -2.9115044247787623, -3.9469026548672588, -0.2831858407079646, 0.0, 16.035398230088497, 0.0, -0.00663716814159292, 0.0, -0.0022123893805309734, 0.0, -0.00663716814159292, 17.283185840707965, 1.7610619469026574, -28.309734513274336, -0.1504424778761062, 0.0, 15.831858407079643, -0.0022123893805309734, -0.0022123893805309734, -0.004424778761061947, 0.0, 0.0, -0.011061946902654867, 0.10707964601769909, 0.1929203539823009, -1.6130530973451318, 1.0256637168141594, -0.006858407079646017, 0.0, -0.4471238938053094, -0.5853982300884955, -2.4442477876106192, -3.818362831858412, -0.8787610619469027, -1.2517699115044247, 7.630752212389382, 1.3347345132743362, -0.019469026548672573, 0.005973451327433629, 0.1179203539823016, -0.575, 16.744469026548696, 17.941371681415937, -0.7794247787610619, -0.3940265486725665, 7.007743362831862, 1.7396017699115043, -0.15398230088495574, 0.01327433628318584, 0.47234513274336276, 0.14712389380530966, 24.82920353982301, 28.909955752212387, 0.5528761061946903, 5.234070796460175, -5.551115123125783e-16, -8.353097345132742, -0.11283185840707964, 0.0008849557522123895, 0.06725663716814201, 0.5438053097345127, -6.169247787610617, -6.700884955752219, 0.2553097345132743, 0.45398230088495567, -2.649557522123895, -1.8590707964601771, -0.02809734513274336, 0.0, -0.40265486725663713, 0.2984513274336281, -12.950221238938052, -6.37942477876106, -0.7988938053097345, -1.0362831858407078, 7.837831858407079, 1.3179203539823008, -0.05132743362831858, 0.019247787610619467, 0.3196902654867253, -0.2681415929203541, 21.62389380530974, 23.781637168141586, 2.4407079646017698, 1.4201327433628315, -0.5336283185840711, -10.745353982300887, -0.31769911504424786, 0.008849557522123894, -0.7694690265486723, 7.723893805309735, -32.06150442477875, 48.78119469026548, 2.1360619469026547, 0.9143805309734514, -3.1778761061946907, -4.351106194690262, -0.18141592920353983, 0.01592920353982301, -1.1015486725663717, 6.4820796460177, -18.617256637168143, 49.554203539823014, 1.6318584070796458, 0.6535398230088495, -1.7396017699115065, -0.7493362831858246, -0.032964601769911506, 0.013495575221238938, -0.8267699115044248, 5.4053097345132795, 11.569026548672568, 69.37721238938052, -1.1011061946902656, -0.702433628318584, 15.86061946902655, -2.7654867256637123, -0.025663716814159295, 0.0028761061946902654, -0.04778761061946879, -3.135840707964603, 30.218805309734503, 2.671460176991154, -0.8146017699115043, -0.7227876106194691, 8.330088495575223, 1.2075221238938059, -0.016814159292035398, 0.0, 0.05331858407079637, -3.0221238938053103, 19.959955752212398, -9.871460176991171, -0.5975663716814154, -0.5210176991150441, 3.4519911504424847, 1.4573008849557536, -0.003982300884955752, 0.0, -0.014823008849557673, -2.4223451327433625, 12.273893805309722, -11.47323008849559, 0.0
-2.471238938053098, 0.4491150442477876, -6.188053097345119, -4.170353982300881, -14.920353982300881, -26.152654867256643, -37.2079646017699, -8.949115044247776, -11.004424778761063, -52.676991150442475, 29.8490990990991, -0.9139534883720941, -35.71618625277162, -13.592105263157896, 3.5365853658536537, -5.628318584070796, -3.628318584070797, 11.079646017699115, -0.1415929203539823, 0.0, -2.0353982300884965, -0.0022123893805309734, -0.011061946902654867, -0.011061946902654867, -0.004424778761061947, -0.004424778761061947, -0.008849557522123894, -5.619469026548672, -18.336283185840706, 15.4070796460177, -0.4336283185840708, -0.1504424778761062, -11.63716814159292, -0.017699115044247787, -0.028761061946902654, -0.0022123893805309734, -0.004424778761061947, -0.004424778761061947, -0.015486725663716814, 35.97345132743363, -13.982300884955755, -20.327433628318584, -2.3008849557522124, -0.3185840707964602, 25.486725663716815, -0.0022123893805309734, -0.035398230088495575, -0.0022123893805309734, -0.017699115044247787, -0.011061946902654867, -0.004424778761061947, 2.637168141592923, 12.672566371681416, -7.79646017699115, -2.8230088495575223, -0.07079646017699115, 20.76991150442478, -0.011061946902654867, -0.004424778761061947, -0.004424778761061947, -0.004424778761061947, -0.004424778761061947, -0.008849557522123894, -10.274336283185841, 4.424778761061944, 12.15929203539823, -0.8141592920353983, 0.0, 0.6991150442477867, 0.0, -0.017699115044247787, -0.0022123893805309734, -0.0022123893805309734, -0.00663716814159292, -0.0022123893805309734, 40.52212389380531, -50.4070796460177, -19.79646017699115, -0.7699115044247787, -0.22123893805309736, -29.876106194690266, -0.004424778761061947, -0.024336283185840708, 0.0, -0.0022123893805309734, -0.0022123893805309734, -0.0022123893805309734, 51.39823008849557, 0.15929203539823078, -42.123893805309734, -3.9911504424778763, -0.11504424778761062, 49.27433628318584, -0.00663716814159292, -0.015486725663716814, -0.008849557522123894, -0.008849557522123894, -0.011061946902654867, -0.022123893805309734, 61.67256637168141, -13.610619469026545, -43.610619469026545, -2.0353982300884956, -0.17699115044247787, 49.3716814159292, -0.008849557522123894, -0.008849557522123894, -0.01327433628318584, -0.008849557522123894, -0.008849557522123894, -0.017699115044247787, -3.814159292035398, -14.46017699115044, 2.3185840707964616, -0.5398230088495575, -0.13274336283185842, -11.734513274336283, -0.024336283185840708, -0.004424778761061947, -0.00663716814159292, -0.008849557522123894, -0.00663716814159292, -0.011061946902654867, -3.2389380530973453, -22.079646017699112, 1.5840707964601748, -0.5221238938053098, -0.12389380530973451, -19.04424778761062, -0.004424778761061947, -0.01327433628318584, 0.0, 0.0, -0.004424778761061947, -0.017699115044247787, -4.946902654867257, -10.911504424778762, 8.053097345132741, -0.2831858407079646, 0.0, -11.964601769911503, 0.0, -0.00663716814159292, 0.0, -0.0022123893805309734, 0.0, -0.00663716814159292, -6.716814159292035, -10.238938053097343, 15.690265486725664, -0.1504424778761062, 0.0, -8.168141592920357, -0.0022123893805309734, -0.0022123893805309734, -0.004424778761061947, 0.0, 0.0, -0.011061946902654867, -0.5929203539823009, 0.1929203539823009, 1.8869469026548682, -1.1743362831858408, -0.006858407079646017, 0.0, 0.1528761061946906, -0.4853982300884955, 1.5557522123893808, -1.6183628318584127, 0.02123893805309729, 0.2482300884955753, -5.169247787610619, 0.33473451327433623, -0.019469026548672573, 0.005973451327433629, 0.31792035398230156, -0.2749999999999999, -15.155530973451306, -17.45862831858406, 0.620575221238938, -4.994026548672567, -2.092256637168138, 1.7396017699115043, -0.15398230088495574, 0.01327433628318584, -0.02765486725663724, 0.14712389380530966, -16.37079646017699, -15.490044247787614, -0.04712389380530965, -0.06592920353982468, 0.6999999999999995, 1.1469026548672572, -0.11283185840707964, 0.0008849557522123895, -0.3327433628318581, 0.5438053097345127, 5.430752212389384, 10.59911504424778, -0.3446902654867257, 0.45398230088495567, 3.150442477876105, -0.659070796460177, -0.02809734513274336, 0.0, 0.29734513274336294, -0.6015486725663719, 7.349778761061947, 3.52057522123894, 0.6011061946902655, -1.0362831858407078, -4.86216814159292, 1.3179203539823008, -0.05132743362831858, 0.019247787610619467, 0.3196902654867253, -0.16814159292035413, -13.076106194690258, -15.118362831858411, -0.2592920353982301, -5.5798672566371685, -0.5336283185840711, 6.554646017699112, -0.31769911504424786, 0.008849557522123894, 0.5305309734513277, 0.7238938053097342, -2.3615044247787544, 3.881194690265483, -0.2639380530973454, -5.285619469026549, -2.7778761061946904, 9.048893805309739, -0.18141592920353983, 0.01592920353982301, 0.2984513274336283, -1.0179203539822996, -1.8172566371681427, -10.545796460176984, -0.6681415929203542, 0.6535398230088495, -4.439601769911507, 0.25066371681417543, -0.032964601769911506, 0.013495575221238938, 0.47323008849557513, -2.0946902654867214, -8.430973451327432, -29.32278761061948, 0.09889380530973453, 0.297566371681416, -10.839380530973449, 0.03451327433628837, -0.025663716814159295, 0.0028761061946902654, 0.35221238938053123, -1.7358407079646028, -24.281194690265494, -40.828539823008846, 0.08539823008849573, 0.277212389380531, -8.469911504424775, -0.8924778761061942, -0.016814159292035398, 0.0, 0.15331858407079635, -1.2221238938053105, -23.440044247787597, -34.97146017699117, 0.0024336283185846797, 0.27898230088495585, -6.348008849557515, -0.7426991150442466, -0.003982300884955752, 0.0, 0.18517699115044228, -1.0223451327433626, -18.726106194690278, -27.27323008849559, 0.0
-1.471238938053098, -0.5508849557522124, 2.8119469026548813, 11.829646017699119, 16.07964601769912, 42.84734513274336, -40.2079646017699, 48.050884955752224, 24.995575221238937, -95.67699115044248, 108.8490990990991, 12.086046511627906, 108.28381374722838, 136.5921052631579, 18.536585365853654, 26.371681415929203, -15.628318584070797, 23.079646017699115, -0.1415929203539823, 0.0, 17.964601769911503, -0.0022123893805309734, -0.011061946902654867, -0.011061946902654867, -0.004424778761061947, -0.004424778761061947, -0.008849557522123894, 14.380530973451329, -34.336283185840706, 15.4070796460177, -0.4336283185840708, -0.1504424778761062, -3.6371681415929196, -0.017699115044247787, -0.028761061946902654, -0.0022123893805309734, -0.004424778761061947, -0.004424778761061947, -0.015486725663716814, -16.02654867256637, -13.982300884955755, 35.67256637168141, -2.3008849557522124, -0.3185840707964602, -18.513274336283185, -0.0022123893805309734, -0.035398230088495575, -0.0022123893805309734, -0.017699115044247787, -0.011061946902654867, -0.004424778761061947, -45.36283185840708, 12.672566371681416, 20.20353982300885, 45.176991150442475, -0.07079646017699115, 36.76991150442478, -0.011061946902654867, -0.004424778761061947, -0.004424778761061947, -0.004424778761061947, -0.004424778761061947, -0.008849557522123894, 21.72566371681416, 4.424778761061944, -19.84070796460177, -0.8141592920353983, 0.0, 28.699115044247787, 0.0, -0.017699115044247787, -0.0022123893805309734, -0.0022123893805309734, -0.00663716814159292, -0.0022123893805309734, -7.477876106194691, -34.4070796460177, 0.20353982300884965, 11.230088495575222, 43.7787610619469, 10.123893805309734, -0.004424778761061947, -0.024336283185840708, 0.0, -0.0022123893805309734, -0.0022123893805309734, -0.0022123893805309734, -12.601769911504425, 20.15929203539823, 1.8761061946902657, -3.9911504424778763, -0.11504424778761062, 9.27433628318584, -0.00663716814159292, -0.015486725663716814, -0.008849557522123894, -0.008849557522123894, -0.011061946902654867, -0.022123893805309734, -6.327433628318584, 10.389380530973455, 0.3893805309734546, -2.0353982300884956, -0.17699115044247787, 9.371681415929203, -0.008849557522123894, -0.008849557522123894, -0.01327433628318584, -0.008849557522123894, -0.008849557522123894, -0.017699115044247787, -3.814159292035398, -6.4601769911504405, 10.318584070796462, -0.5398230088495575, -0.13274336283185842, -15.734513274336283, -0.024336283185840708, -0.004424778761061947, -0.00663716814159292, -0.008849557522123894, -0.00663716814159292, -0.011061946902654867, -3.2389380530973453, -30.079646017699112, 25.584070796460175, -0.5221238938053098, -0.12389380530973451, -23.04424778761062, -0.004424778761061947, -0.01327433628318584, 0.0, 0.0, -0.004424778761061947, -0.017699115044247787, 75.05309734513274, -46.91150442477876, -39.94690265486726, -0.2831858407079646, 0.0, -31.964601769911503, 0.0, -0.00663716814159292, 0.0, -0.0022123893805309734, 0.0, -0.00663716814159292, 33.283185840707965, -38.23893805309734, 11.690265486725664, -0.1504424778761062, 0.0, 11.831858407079643, -0.0022123893805309734, -0.0022123893805309734, -0.004424778761061947, 0.0, 0.0, -0.011061946902654867, -0.2929203539823009, -2.107079646017699, 0.5869469026548675, -0.8743362831858406, -0.006858407079646017, 0.0, 0.5528761061946905, -4.285398230088496, -9.74424778761062, -59.618362831858406, 1.1212389380530974, -0.7517699115044247, -2.4692477876106187, -2.865265486725664, -0.019469026548672573, 0.005973451327433629, 1.1179203539823015, -0.875, -20.755530973451307, -24.258628318584062, 1.4205752212389382, 1.0059734513274334, -1.492256637168138, -3.5603982300884955, -0.15398230088495574, 0.01327433628318584, 0.47234513274336276, 3.1471238938053094, -14.670796460176991, 25.109955752212386, 0.15287610619469033, 5.234070796460175, 0.9999999999999993, -4.153097345132743, 2.5871681415929206, 0.0008849557522123895, -0.8327433628318581, 2.2438053097345128, 17.630752212389382, 32.89911504424778, -0.6446902654867257, -1.6460176991150444, 1.5504424778761052, 1.240929203539823, -0.02809734513274336, 0.0, -0.40265486725663713, -2.401548672566372, 3.249778761061946, -12.779424778761062, 0.5011061946902655, 0.36371681415929213, -4.2621681415929205, 0.11792035398230083, 1.2486725663716816, -4.480752212389381, 1.3196902654867253, 0.1318584070796459, -19.776106194690257, -20.01836283185841, 1.0407079646017698, 1.4201327433628315, 3.166371681415929, -1.2453539823008875, -0.31769911504424786, 0.008849557522123894, -0.9694690265486723, 3.3238938053097344, 12.138495575221247, 45.681194690265485, 2.4360619469026545, 0.9143805309734514, 1.4221238938053098, -5.151106194690261, -0.18141592920353983, 0.01592920353982301, -0.9015486725663717, 4.6820796460177, -1.4172566371681405, 52.054203539823014, 4.531858407079645, 0.6535398230088495, -6.639601769911506, -16.549336283185824, -0.032964601769911506, 0.013495575221238938, -1.0267699115044249, 4.805309734513278, -58.630973451327435, -1.92278761061948, 4.598893805309734, 0.297566371681416, -11.339380530973449, -15.165486725663712, -0.025663716814159295, 0.0028761061946902654, 0.4522123893805312, 1.6641592920353974, -85.08119469026549, -66.32853982300884, 3.3853982300884957, -13.922787610619467, -11.369911504424776, 3.6075221238938058, -0.016814159292035398, 0.0, 0.6533185840707963, 0.1778761061946894, -74.6400442477876, -70.67146017699116, 1.8024336283185847, -3.2210176991150443, -8.048008849557515, -3.5426991150442464, -0.003982300884955752, 0.0, 0.7851769911504424, -2.1223451327433627, -35.726106194690274, -54.87323008849559, 0.0
7.528761061946902, -0.5508849557522124, -2.1880530973451187, 14.829646017699119, 18.07964601769912, 26.847345132743357, -8.207964601769902, 71.05088495575222, 36.99557522123894, -29.676991150442475, -199.1509009009009, -4.913953488372094, -52.71618625277162, -154.4078947368421, 1.5365853658536537, 14.371681415929203, 4.371681415929203, -20.920353982300885, -0.1415929203539823, 0.0, 13.964601769911503, -0.0022123893805309734, -0.011061946902654867, -0.011061946902654867, -0.004424778761061947, -0.004424778761061947, -0.008849557522123894, -5.619469026548672, 17.663716814159294, -20.5929203539823, -0.4336283185840708, -0.1504424778761062, -11.63716814159292, -0.017699115044247787, 0.9712389380530974, -0.0022123893805309734, -0.004424778761061947, -0.004424778761061947, -0.015486725663716814, -16.02654867256637, -17.982300884955755, 27.672566371681416, 45.69911504424779, -0.3185840707964602, 53.48672566371681, -0.0022123893805309734, -0.035398230088495575, -0.0022123893805309734, -0.017699115044247787, -0.011061946902654867, -0.004424778761061947, 34.63716814159292, -19.327433628318584, -7.79646017699115, -2.8230088495575223, -0.07079646017699115, -31.23008849557522, -0.011061946902654867, -0.004424778761061947, -0.004424778761061947, -0.004424778761061947, -0.004424778761061947, -0.008849557522123894, -10.274336283185841, 8.424778761061944, 28.15929203539823, -0.8141592920353983, 0.0, 0.6991150442477867, 0.0, -0.017699115044247787, -0.0022123893805309734, -0.0022123893805309734, -0.00663716814159292, -0.0022123893805309734, -7.477876106194691, -30.4070796460177, 20.20353982300885, 43.230088495575224, -0.22123893805309736, 42.123893805309734, -0.004424778761061947, -0.024336283185840708, 0.0, -0.0022123893805309734, -0.0022123893805309734, -0.0022123893805309734, -12.601769911504425, 12.15929203539823, 17.876106194690266, -3.9911504424778763, -0.11504424778761062, 5.274336283185839, -0.00663716814159292, -0.015486725663716814, -0.008849557522123894, -0.008849557522123894, -0.011061946902654867, -0.022123893805309734, -6.327433628318584, 22.389380530973455, 4.389380530973455, -2.0353982300884956, -0.17699115044247787, 17.371681415929203, -0.008849557522123894, -0.008849557522123894, -0.01327433628318584, -0.008849557522123894, -0.008849557522123894, -0.017699115044247787, -3.814159292035398, 13.53982300884956, 18.31858407079646, -0.5398230088495575, -0.13274336283185842, 16.265486725663717, -0.024336283185840708, -0.004424778761061947, -0.00663716814159292, -0.008849557522123894, -0.00663716814159292, -0.011061946902654867, -3.2389380530973453, 9.920353982300888, 17.584070796460175, -0.5221238938053098, -0.12389380530973451, 8.955752212389381, -0.004424778761061947, -0.01327433628318584, 0.0, 0.0, -0.004424778761061947, -0.017699115044247787, -4.946902654867257, 5.088495575221238, 20.05309734513274, -0.2831858407079646, 0.0, 4.0353982300884965, 0.0, -0.00663716814159292, 0.0, -0.0022123893805309734, 0.0, -0.00663716814159292, -6.716814159292035, 17.761061946902657, -28.309734513274336, -0.1504424778761062, 0.0, -0.1681415929203567, -0.0022123893805309734, -0.0022123893805309734, -0.004424778761061947, 0.0, 0.0, -0.011061946902654867, -1.892920353982301, -0.4070796460176991, 11.08694690265487, 1.0256637168141594, -0.006858407079646017, 0.0, -0.04712389380530946, -2.8853982300884953, 33.35575221238938, 3.2816371681415895, -1.2787610619469025, 0.2482300884955753, -1.9692477876106187, 1.3347345132743362, -0.019469026548672573, 0.005973451327433629, -0.3820796460176985, -3.075, 1.7444690265486926, -28.95862831858406, 0.5205752212389381, 1.0059734513274334, -2.792256637168138, -10.260398230088496, 3.3460176991150443, 0.01327433628318584, -0.02765486725663724, 0.3471238938053096, -22.270796460176992, -16.69004424778761, 1.2528761061946903, -6.3659292035398245, -0.9000000000000006, 1.1469026548672572, -0.11283185840707964, 0.0008849557522123895, -0.23274336283185804, 2.7438053097345128, -30.769247787610617, -3.4008849557522183, -0.8446902654867257, 0.45398230088495567, 10.150442477876105, -1.3590707964601771, -0.02809734513274336, 0.0, 0.4973451327433629, -1.401548672566372, 23.64977876106195, 8.420575221238938, -0.29889380530973453, 0.36371681415929213, -4.36216814159292, -0.6820796460176992, 3.848672566371681, 0.019247787610619467, 0.11969026548672534, -1.768141592920354, -4.776106194690259, -21.91836283185841, 1.3407079646017699, 1.4201327433628315, 0.566371681415929, -8.045353982300888, -0.31769911504424786, 0.008849557522123894, -0.8694690265486722, 2.3238938053097344, -21.16150442477875, 7.9811946902654824, 0.3360619469026547, 0.9143805309734514, 4.122123893805309, -8.951106194690261, -0.18141592920353983, 0.01592920353982301, -0.2015486725663717, 0.6820796460177001, -2.6172566371681434, 11.354203539823018, -0.7681415929203542, 0.6535398230088495, 8.960398230088494, -12.249336283185823, -0.032964601769911506, 0.013495575221238938, -0.7267699115044248, -1.9946902654867218, -11.330973451327434, -27.72278761061948, -1.8011061946902656, 0.297566371681416, 13.660619469026551, -11.565486725663714, -0.025663716814159295, 0.0028761061946902654, 0.15221238938053117, -4.835840707964603, 5.518805309734505, -46.62853982300885, -2.1146017699115043, 0.277212389380531, 10.630088495575224, -3.992477876106194, -0.016814159292035398, 0.0, 0.05331858407079637, -4.422123893805311, 16.5599557522124, -32.47146017699117, -1.5975663716814152, 0.27898230088495585, 4.851991150442485, 1.4573008849557536, -0.003982300884955752, 0.0, 0.5851769911504424, -3.422345132743363, 27.873893805309724, -9.97323008849559, 0.0
6.528761061946902, -0.5508849557522124, -1.1880530973451187, -4.170353982300881, -2.920353982300881, -2.1526548672566435, -59.2079646017699, 44.050884955752224, -3.004424778761063, -25.676991150442475, -196.1509009009009, 9.086046511627906, -74.71618625277162, -165.4078947368421, 19.536585365853654, 14.371681415929203, 0.3716814159292028, -20.920353982300885, -0.1415929203539823, 0.0, 13.964601769911503, -0.0022123893805309734, -0.011061946902654867, -0.011061946902654867, -0.004424778761061947, -0.004424778761061947, -0.008849557522123894, 14.380530973451329, -6.336283185840706, -20.5929203539823, -0.4336283185840708, -0.1504424778761062, 4.36283185840708, -0.017699115044247787, -0.028761061946902654, -0.0022123893805309734, -0.004424778761061947, -0.004424778761061947, -0.015486725663716814, 35.97345132743363, -41.982300884955755, -20.327433628318584, -2.3008849557522124, -0.3185840707964602, -30.513274336283185, -0.0022123893805309734, -0.035398230088495575, -0.0022123893805309734, -0.017699115044247787, -0.011061946902654867, -0.004424778761061947, -45.36283185840708, 0.6725663716814161, 44.20353982300885, -2.8230088495575223, -0.07079646017699115, -19.23008849557522, -0.011061946902654867, -0.004424778761061947, -0.004424778761061947, -0.004424778761061947, -0.004424778761061947, -0.008849557522123894, 9.725663716814159, 8.424778761061944, -19.84070796460177, -0.8141592920353983, 0.0, 16.699115044247787, 0.0, -0.017699115044247787, -0.0022123893805309734, -0.0022123893805309734, -0.00663716814159292, -0.0022123893805309734, 8.52212389380531, -26.4070796460177, 16.20353982300885, -0.7699115044247787, -0.22123893805309736, -5.876106194690266, -0.004424778761061947, -0.024336283185840708, 0.0, -0.0022123893805309734, -0.0022123893805309734, -0.0022123893805309734, -12.601769911504425, 8.15929203539823, 1.8761061946902657, -3.9911504424778763, -0.11504424778761062, 1.2743362831858391, -0.00663716814159292, -0.015486725663716814, -0.008849557522123894, -0.008849557522123894, -0.011061946902654867, -0.022123893805309734, -6.327433628318584, 2.3893805309734546, -3.6106194690265454, -2.0353982300884956, -0.17699115044247787, 1.3716814159292028, -0.008849557522123894, -0.008849557522123894, -0.01327433628318584, -0.008849557522123894, -0.008849557522123894, -0.017699115044247787, -3.814159292035398, -2.4601769911504405, -1.6814159292035384, -0.5398230088495575, -0.13274336283185842, -3.734513274336283, -0.024336283185840708, -0.004424778761061947, -0.00663716814159292, -0.008849557522123894, -0.00663716814159292, -0.011061946902654867, -3.2389380530973453, -2.079646017699112, 5.584070796460175, -0.5221238938053098, -0.12389380530973451, -3.044247787610619, -0.004424778761061947, -0.01327433628318584, 0.0, 0.0, -0.004424778761061947, -0.017699115044247787, 11.053097345132743, -6.911504424778762, 4.053097345132741, -0.2831858407079646, 0.0, 8.035398230088497, 0.0, -0.00663716814159292, 0.0, -0.0022123893805309734, 0.0, -0.00663716814159292, 17.283185840707965, -2.2389380530973426, -28.309734513274336, -0.1504424778761062, 0.0, 11.831858407079643, -0.0022123893805309734, -0.0022123893805309734, -0.004424778761061947, 0.0, 0.0, -0.011061946902654867, -1.092920353982301, -0.6070796460176991, 5.186946902654867, 1.0256637168141594, -0.006858407079646017, 0.0, 0.35287610619469056, -3.0853982300884955, 14.455752212389381, -15.618362831858413, -0.5787610619469027, -0.25176991150442474, 0.630752212389381, 1.3347345132743362, -0.019469026548672573, 0.005973451327433629, 0.21792035398230147, -3.075, 1.2444690265486926, -27.45862831858406, 0.5205752212389381, -2.5940265486725664, -3.492256637168138, 1.7396017699115043, -0.15398230088495574, 0.01327433628318584, 0.3723451327433628, 0.04712389380530968, -11.970796460176992, -10.490044247787614, 0.7528761061946904, 5.234070796460175, -0.3000000000000006, -8.153097345132743, -0.11283185840707964, 0.0008849557522123895, -0.13274336283185806, 2.943805309734513, -7.869247787610616, 19.79911504424778, -0.7446902654867258, -0.04601769911504433, 3.9504424778761056, 1.240929203539823, -0.02809734513274336, 0.0, -0.20265486725663712, -1.401548672566372, 13.249778761061947, -0.679424778761061, 0.0011061946902654772, -0.03628318584070789, -2.46216814159292, 0.7179203539823008, -0.05132743362831858, 0.019247787610619467, 0.21969026548672532, -1.668141592920354, -8.276106194690259, -23.318362831858412, 0.5407079646017698, 1.4201327433628315, 2.166371681415929, -7.545353982300887, -0.31769911504424786, 0.008849557522123894, 0.3305309734513277, 2.6238938053097343, -6.261504424778753, 22.18119469026548, 0.3360619469026547, 0.9143805309734514, 4.622123893805309, -9.451106194690261, -0.18141592920353983, 0.01592920353982301, -0.0015486725663716929, 0.7820796460177002, -3.6172566371681434, 6.1542035398230155, -0.5681415929203542, 0.6535398230088495, 2.7603982300884944, -3.949336283185824, -0.032964601769911506, 0.013495575221238938, -0.22676991150442485, -2.0946902654867214, 1.6690265486725675, -23.22278761061948, -0.7011061946902655, 0.297566371681416, -1.5393805309734478, -2.865486725663712, -0.025663716814159295, 0.0028761061946902654, -0.2477876106194688, -4.1358407079646025, -11.181194690265494, -52.02853982300884, -1.5146017699115042, -0.12278761061946902, 4.8300884955752235, -1.4924778761061939, -0.016814159292035398, 0.0, -0.24668141592920362, -4.422123893805311, 3.0599557522123995, -41.671460176991175, -1.4975663716814154, -0.4210176991150441, 5.251991150442485, 1.4573008849557536, -0.003982300884955752, 0.0, -0.11482300884955765, -4.322345132743362, 14.17389380530972, -30.073230088495592, 0.0
-11.471238938053098, 0.4491150442477876, -1.1880530973451187, 26.82964601769912, -6.920353982300881, -22.152654867256643, 31.792035398230098, -7.949115044247776, 10.995575221238937, -52.676991150442475, -10.1509009009009, -14.913953488372094, -41.71618625277162, -13.592105263157896, -19.463414634146346, -5.628318584070796, 20.371681415929203, -20.920353982300885, -0.1415929203539823, 0.0, -6.0353982300884965, -0.0022123893805309734, -0.011061946902654867, -0.011061946902654867, -0.004424778761061947, -0.004424778761061947, -0.008849557522123894, -5.619469026548672, -18.336283185840706, 23.4070796460177, -0.4336283185840708, -0.1504424778761062, -11.63716814159292, -0.017699115044247787, -0.028761061946902654, -0.0022123893805309734, -0.004424778761061947, -0.004424778761061947, -0.015486725663716814, 67.97345132743362, -41.982300884955755, -20.327433628318584, -2.3008849557522124, -0.3185840707964602, -30.513274336283185, -0.0022123893805309734, -0.035398230088495575, -0.0022123893805309734, -0.017699115044247787, -0.011061946902654867, -0.004424778761061947, -5.362831858407077, 0.6725663716814161, -7.79646017699115, -2.8230088495575223, -0.07079646017699115, 16.76991150442478, -0.011061946902654867, -0.004424778761061947, -0.004424778761061947, -0.004424778761061947, -0.004424778761061947, -0.008849557522123894, -10.274336283185841, 40.424778761061944, -19.84070796460177, -0.8141592920353983, 0.0, 0.6991150442477867, 0.0, -0.017699115044247787, -0.0022123893805309734, -0.0022123893805309734, -0.00663716814159292, -0.0022123893805309734, -7.477876106194691, -22.4070796460177, 28.20353982300885, -0.7699115044247787, -0.22123893805309736, -13.876106194690266, -0.004424778761061947, -0.024336283185840708, 0.0, -0.0022123893805309734, -0.0022123893805309734, -0.0022123893805309734, -12.601769911504425, 4.159292035398231, 21.876106194690266, -3.9911504424778763, -0.11504424778761062, -2.725663716814161, -0.00663716814159292, -0.015486725663716814, -0.008849557522123894, -0.008849557522123894, -0.011061946902654867, -0.022123893805309734, -6.327433628318584, 6.389380530973455, 8.389380530973455, -2.0353982300884956, -0.17699115044247787, -6.628318584070797, -0.008849557522123894, -0.008849557522123894, -0.01327433628318584, -0.008849557522123894, -0.008849557522123894, -0.017699115044247787, -3.814159292035398, 5.5398230088495595, 6.318584070796462, -0.5398230088495575, -0.13274336283185842, 8.265486725663717, -0.024336283185840708, -0.004424778761061947, -0.00663716814159292, -0.008849557522123894, -0.00663716814159292, -0.011061946902654867, -3.2389380530973453, -2.079646017699112, 5.584070796460175, -0.5221238938053098, -0.12389380530973451, -3.044247787610619, -0.004424778761061947, -0.01327433628318584, 0.0, 0.0, -0.004424778761061947, -0.017699115044247787, -4.946902654867257, -2.9115044247787623, 8.053097345132741, -0.2831858407079646, 0.0, -3.9646017699115035, 0.0, -0.00663716814159292, 0.0, -0.0022123893805309734, 0.0, -0.00663716814159292, -6.716814159292035, -10.238938053097343, 19.690265486725664, -0.1504424778761062, 0.0, -8.168141592920357, -0.0022123893805309734, -0.0022123893805309734, -0.004424778761061947, 0.0, 0.0, -0.011061946902654867, 0.10707964601769909, 0.1929203539823009, 0.28694690265486766, 1.0256637168141594, -0.006858407079646017, 0.0, 0.2528761061946906, 0.31460176991150457, 8.755752212389382, 11.081637168141587, 0.1212389380530973, 0.2482300884955753, -2.7692477876106185, -1.0652654867256637, -0.019469026548672573, 0.005973451327433629, -0.08207964601769846, -0.07499999999999996, -14.255530973451307, -15.15862831858406, -0.1794247787610619, -2.0940265486725664, -3.492256637168138, 1.7396017699115043, -0.15398230088495574, 0.01327433628318584, -0.22765486725663725, -0.4528761061946903, -15.670796460176991, -19.290044247787613, -0.04712389380530965, -0.1659292035398252, 0.09999999999999942, 1.1469026548672572, -0.11283185840707964, 0.0008849557522123895, -0.13274336283185806, 0.24380530973451264, 5.830752212389383, 8.89911504424778, 0.2553097345132743, 0.45398230088495567, 0.7504424778761054, 1.240929203539823, -0.02809734513274336, 0.0, 0.4973451327433629, 0.19845132743362814, 12.149778761061949, 12.720575221238938, 0.0011061946902654772, 0.36371681415929213, -3.66216814159292, -1.482079646017699, -0.05132743362831858, 0.019247787610619467, -0.2803097345132747, -0.46814159292035407, -14.876106194690259, -18.91836283185841, -0.059292035398230136, 1.4201327433628315, -0.1336283185840712, 0.05464601769911237, -0.31769911504424786, 0.008849557522123894, 0.7305309734513277, 0.12389380530973423, 0.03849557522124769, -0.21880530973451862, -0.8639380530973454, 0.9143805309734514, -2.0778761061946907, 1.3488938053097383, -0.18141592920353983, 0.01592920353982301, 0.4984513274336283, 0.5820796460177005, 1.7827433628318587, 2.954203539823016, -1.0681415929203542, 0.6535398230088495, -1.4396017699115067, 2.7506637168141754, -0.032964601769911506, 0.013495575221238938, 0.2732300884955752, -1.1946902654867215, 6.369026548672567, -9.522787610619481, -0.6011061946902655, 0.297566371681416, -3.739380530973449, 0.8345132743362882, -0.025663716814159295, 0.0028761061946902654, -0.04778761061946879, -0.7358407079646028, -7.0811946902654945, -16.328539823008846, -0.11460176991150428, 0.277212389380531, -4.9699115044247755, -0.3924778761061942, -0.016814159292035398, 0.0, -0.04668141592920361, -0.12212389380531041, -13.440044247787599, -15.07146017699117, 0.10243362831858466, 0.27898230088495585, -3.648008849557515, -0.6426991150442465, -0.003982300884955752, 0.0, -0.014823008849557673, 0.17765486725663737, -13.526106194690279, -12.773230088495591, 0.0
28.528761061946902, -0.5508849557522124, 23.81194690265488, 11.829646017699119, 2.079646017699119, 37.84734513274336, 3.792035398230098, 4.050884955752224, 30.995575221238937, -49.676991150442475, -23.1509009009009, 15.086046511627906, -38.71618625277162, -13.592105263157896, -11.463414634146346, -5.628318584070796, 0.3716814159292028, 23.079646017699115, -0.1415929203539823, 0.0, 1.9646017699115035, -0.0022123893805309734, -0.011061946902654867, -0.011061946902654867, -0.004424778761061947, -0.004424778761061947, -0.008849557522123894, -5.619469026548672, -10.336283185840706, -0.5929203539823007, 35.56637168141593, -0.1504424778761062, -3.6371681415929196, -0.017699115044247787, -0.028761061946902654, -0.0022123893805309734, -0.004424778761061947, -0.004424778761061947, -0.015486725663716814, 35.97345132743363, -1.9823008849557553, -20.327433628318584, -2.3008849557522124, -0.3185840707964602, 29.486725663716815, -0.0022123893805309734, -0.035398230088495575, -0.0022123893805309734, -0.017699115044247787, -0.011061946902654867, -0.004424778761061947, 6.637168141592923, -19.327433628318584, -7.79646017699115, -2.8230088495575223, -0.07079646017699115, -31.23008849557522, -0.011061946902654867, -0.004424778761061947, -0.004424778761061947, -0.004424778761061947, -0.004424778761061947, -0.008849557522123894, -10.274336283185841, 12.424778761061944, 16.15929203539823, -0.8141592920353983, 0.0, 4.699115044247787, 0.0, -0.017699115044247787, -0.0022123893805309734, -0.0022123893805309734, -0.00663716814159292, -0.0022123893805309734, 40.52212389380531, -18.4070796460177, -19.79646017699115, -0.7699115044247787, -0.22123893805309736, 26.123893805309734, -0.004424778761061947, -0.024336283185840708, 0.0, -0.0022123893805309734, -0.0022123893805309734, -0.0022123893805309734, 67.39823008849558, -23.84070796460177, -42.123893805309734, -3.9911504424778763, -0.11504424778761062, -18.72566371681416, -0.00663716814159292, -0.015486725663716814, -0.008849557522123894, -0.008849557522123894, -0.011061946902654867, -0.022123893805309734, -6.327433628318584, 6.389380530973455, 8.389380530973455, -2.0353982300884956, -0.17699115044247787, 5.371681415929203, -0.008849557522123894, -0.008849557522123894, -0.01327433628318584, -0.008849557522123894, -0.008849557522123894, -0.017699115044247787, -3.814159292035398, 5.5398230088495595, 6.318584070796462, -0.5398230088495575, -0.13274336283185842, 4.265486725663717, -0.024336283185840708, -0.004424778761061947, -0.00663716814159292, -0.008849557522123894, -0.00663716814159292, -0.011061946902654867, -3.2389380530973453, 5.920353982300888, 9.584070796460175, -0.5221238938053098, -0.12389380530973451, 4.955752212389381, -0.004424778761061947, -0.01327433628318584, 0.0, 0.0, -0.004424778761061947, -0.017699115044247787, -4.946902654867257, 5.088495575221238, 8.053097345132741, -0.2831858407079646, 0.0, 0.03539823008849652, 0.0, -0.00663716814159292, 0.0, -0.0022123893805309734, 0.0, -0.00663716814159292, -6.716814159292035, 5.761061946902657, 15.690265486725664, -0.1504424778761062, 0.0, -0.1681415929203567, -0.0022123893805309734, -0.0022123893805309734, -0.004424778761061947, 0.0, 0.0, -0.011061946902654867, 0.007079646017699087, 0.1929203539823009, 0.08694690265486749, 0.025663716814159354, -0.006858407079646017, 0.0, -0.04712389380530946, 1.1146017699115047, -0.24424778761061994, 9.981637168141589, 0.1212389380530973, 0.2482300884955753, -5.469247787610619, 0.33473451327433623, 0.5805309734513274, 0.005973451327433629, 0.31792035398230156, 0.125, -13.255530973451307, -12.458628318584061, 0.02057522123893811, -4.194026548672567, -2.092256637168138, 1.7396017699115043, -0.15398230088495574, 0.01327433628318584, 0.3723451327433628, -0.9528761061946903, -13.37079646017699, -21.19004424778761, 0.25287610619469036, 1.3340707964601752, -0.9000000000000006, 1.1469026548672572, -0.11283185840707964, 0.0008849557522123895, -0.03274336283185808, -0.5561946902654873, 5.530752212389384, 1.4991150442477803, 0.1553097345132743, 0.45398230088495567, 2.2504424778761054, 0.24092920353982294, -0.02809734513274336, 0.0, -0.20265486725663712, 0.8984513274336281, 8.649778761061945, 15.220575221238938, 0.0011061946902654772, -2.136283185840708, -4.06216814159292, 1.3179203539823008, -0.05132743362831858, 0.019247787610619467, 0.3196902654867253, -0.46814159292035407, -14.576106194690258, -18.71836283185841, -0.5592920353982301, -4.5798672566371685, -1.6336283185840712, 6.554646017699112, -0.31769911504424786, 0.008849557522123894, -0.46946902654867234, -0.7761061946902658, -5.261504424778753, -13.818805309734516, -0.9639380530973454, 0.9143805309734514, -1.9778761061946906, 2.648893805309738, -0.18141592920353983, 0.01592920353982301, 0.1984513274336283, 0.2820796460177002, 5.382743362831858, 4.954203539823016, -0.8681415929203542, 0.6535398230088495, 0.36039823008849403, 0.15066371681417579, -0.032964601769911506, 0.013495575221238938, 0.37323008849557515, 2.0053097345132787, 4.369026548672567, 20.277212389380523, -0.30110619469026545, 0.297566371681416, 3.3606194690265507, -1.365486725663712, -0.025663716814159295, 0.0028761061946902654, 0.35221238938053123, 2.564159292035397, 7.618805309734505, 37.37146017699116, -0.11460176991150428, 0.277212389380531, 2.130088495575224, -0.3924778761061942, -0.016814159292035398, 0.0, 0.3533185840707964, 2.1778761061946894, 7.659955752212401, 30.028539823008828, 0.0024336283185846797, 0.27898230088495585, -0.048008849557515276, 0.5573008849557536, -0.003982300884955752, 0.0, 0.38517699115044235, 1.6776548672566374, 3.9738938053097215, 19.926769911504408, 0.0
27.528761061946902, -0.5508849557522124, 5.811946902654881, 5.829646017699119, 17.07964601769912, 9.847345132743357, 43.7920353982301, -8.949115044247776, 5.995575221238937, 21.323008849557525, -13.1509009009009, 48.913953488372094, 5.283813747228379, -13.592105263157896, -13.463414634146346, -5.628318584070796, -11.628318584070797, -8.920353982300885, 23.858407079646017, 0.0, -10.035398230088497, -0.0022123893805309734, -0.011061946902654867, -0.011061946902654867, -0.004424778761061947, -0.004424778761061947, -0.008849557522123894, 14.380530973451329, 17.663716814159294, -20.5929203539823, -0.4336283185840708, -0.1504424778761062, 8.36283185840708, -0.017699115044247787, 0.9712389380530974, -0.0022123893805309734, -0.004424778761061947, -0.004424778761061947, -0.015486725663716814, 15.97345132743363, 22.017699115044245, -20.327433628318584, -2.3008849557522124, -0.3185840707964602, 13.486725663716815, -0.0022123893805309734, -0.035398230088495575, -0.0022123893805309734, -0.017699115044247787, -0.011061946902654867, -0.004424778761061947, 26.637168141592923, -19.327433628318584, -7.79646017699115, -2.8230088495575223, -0.07079646017699115, -31.23008849557522, -0.011061946902654867, -0.004424778761061947, -0.004424778761061947, -0.004424778761061947, -0.004424778761061947, -0.008849557522123894, -10.274336283185841, -7.575221238938056, 0.15929203539823078, 23.1858407079646, 0.0, -7.300884955752213, 0.0, -0.017699115044247787, -0.0022123893805309734, -0.0022123893805309734, -0.00663716814159292, -0.0022123893805309734, 16.522123893805308, 25.5929203539823, -19.79646017699115, -0.7699115044247787, -0.22123893805309736, 14.123893805309734, -0.004424778761061947, -0.024336283185840708, 0.0, -0.0022123893805309734, -0.0022123893805309734, -0.0022123893805309734, -12.601769911504425, 12.15929203539823, 17.876106194690266, -3.9911504424778763, -0.11504424778761062, 5.274336283185839, -0.00663716814159292, -0.015486725663716814, -0.008849557522123894, -0.008849557522123894, -0.011061946902654867, 0.9778761061946902, -6.327433628318584, 10.389380530973455, 12.389380530973455, -2.0353982300884956, -0.17699115044247787, 5.371681415929203, -0.008849557522123894, -0.008849557522123894, -0.01327433628318584, -0.008849557522123894, -0.008849557522123894, -0.017699115044247787, -3.814159292035398, 1.5398230088495595, 18.31858407079646, -0.5398230088495575, -0.13274336283185842, 4.265486725663717, -0.024336283185840708, -0.004424778761061947, -0.00663716814159292, -0.008849557522123894, -0.00663716814159292, -0.011061946902654867, -3.2389380530973453, -6.079646017699112, 17.584070796460175, -0.5221238938053098, -0.12389380530973451, -7.044247787610619, -0.004424778761061947, -0.01327433628318584, 0.0, 0.0, -0.004424778761061947, -0.017699115044247787, -4.946902654867257, -6.911504424778762, 32.05309734513274, -0.2831858407079646, 0.0, -7.9646017699115035, 0.0, -0.00663716814159292, 0.0, -0.0022123893805309734, 0.0, -0.00663716814159292, 13.283185840707965, 25.761061946902657, -28.309734513274336, -0.1504424778761062, 0.0, 7.831858407079643, -0.0022123893805309734, -0.0022123893805309734, -0.004424778761061947, 0.0, 0.0, -0.011061946902654867, -0.2929203539823009, 0.1929203539823009, -1.6130530973451318, 0.4256637168141594, 1.8931415929203539, 0.0, -0.04712389380530946, 1.0146017699115046, -3.1442477876106203, 2.681637168141588, 0.02123893805309729, -0.15176991150442473, -2.2692477876106185, 1.3347345132743362, -0.019469026548672573, 0.005973451327433629, -0.18207964601769844, 0.42500000000000004, 0.24446902654869263, 3.14137168141594, 0.12057522123893812, -0.19402654867256652, 0.10774336283186203, 1.7396017699115043, -0.15398230088495574, 0.01327433628318584, -0.02765486725663724, -0.6528761061946904, 6.929203539823009, 2.109955752212387, -0.04712389380530965, 1.034070796460175, -0.9000000000000006, 1.1469026548672572, -0.11283185840707964, 0.0008849557522123895, 0.9672566371681419, -0.7561946902654872, 0.530752212389384, -5.200884955752219, -0.24469026548672573, 0.45398230088495567, -0.8495575221238947, -0.659070796460177, 0.7719026548672567, 0.0, -0.20265486725663712, 0.6984513274336281, -1.8502212389380532, 2.7205752212389394, 0.0011061946902654772, -0.03628318584070789, -1.0621681415929203, 1.3179203539823008, -0.05132743362831858, 0.019247787610619467, -0.7803097345132747, -0.06814159292035404, 4.223893805309741, 3.681637168141588, 0.3407079646017699, 1.4201327433628315, 1.2663716814159287, -0.7453539823008875, -0.31769911504424786, 0.008849557522123894, 0.5305309734513277, -1.0761061946902657, 2.0384955752212477, -14.418805309734518, 0.7360619469026546, 0.9143805309734514, 3.0221238938053094, -9.35110619469026, -0.18141592920353983, 0.01592920353982301, 0.3984513274336283, 0.3820796460177003, -18.117256637168143, -0.7457964601769831, 0.9318584070796457, 0.6535398230088495, 4.660398230088493, -19.249336283185823, -0.032964601769911506, 0.013495575221238938, 0.17323008849557517, -1.3946902654867217, -52.03097345132743, -54.72278761061948, 0.5988938053097345, 0.297566371681416, -0.9393805309734482, -13.165486725663712, -0.025663716814159295, 0.0028761061946902654, -0.14778761061946877, -1.135840707964603, -48.88119469026549, -59.02853982300884, 0.28539823008849574, 0.277212389380531, -2.369911504424776, -6.192477876106195, -0.016814159292035398, 0.0, -0.14668141592920358, 0.6778761061946894, -35.0400442477876, -27.57146017699117, -0.19756637168141533, -0.22101769911504415, -2.5480088495575153, 1.4573008849557536, -0.003982300884955752, 0.0, -0.21482300884955768, 1.3776548672566375, 4.87389380530972, 19.12676991150441, 0.0
7.528761061946902, 0.4491150442477876, 5.811946902654881, -10.170353982300881, -10.920353982300881, -0.15265486725664346, 14.792035398230098, -6.949115044247776, -9.004424778761063, -57.676991150442475, 5.849099099099099, -7.913953488372094, -49.71618625277162, -13.592105263157896, -1.4634146341463463, -5.628318584070796, 20.371681415929203, -20.920353982300885, -0.1415929203539823, 0.0, -6.0353982300884965, -0.0022123893805309734, -0.011061946902654867, -0.011061946902654867, -0.004424778761061947, -0.004424778761061947, -0.008849557522123894, -5.619469026548672, -10.336283185840706, 23.4070796460177, -0.4336283185840708, -0.1504424778761062, -3.6371681415929196, -0.017699115044247787, -0.028761061946902654, -0.0022123893805309734, -0.004424778761061947, -0.004424778761061947, -0.015486725663716814, 63.97345132743363, -41.982300884955755, -20.327433628318584, -2.3008849557522124, -0.3185840707964602, -30.513274336283185, -0.0022123893805309734, -0.035398230088495575, -0.0022123893805309734, -0.017699115044247787, -0.011061946902654867, -0.004424778761061947, -1.3628318584070769, 16.672566371681416, -7.79646017699115, -2.8230088495575223, -0.07079646017699115, 16.76991150442478, -0.011061946902654867, -0.004424778761061947, -0.004424778761061947, -0.004424778761061947, -0.004424778761061947, -0.008849557522123894, -10.274336283185841, 40.424778761061944, -19.84070796460177, -0.8141592920353983, 0.0, 0.6991150442477867, 0.0, -0.017699115044247787, -0.0022123893805309734, -0.0022123893805309734, -0.00663716814159292, -0.0022123893805309734, 64.52212389380531, -50.4070796460177, -19.79646017699115, -0.7699115044247787, -0.22123893805309736, -29.876106194690266, -0.004424778761061947, -0.024336283185840708, 0.0, -0.0022123893805309734, -0.0022123893805309734, -0.0022123893805309734, -12.601769911504425, 0.15929203539823078, -6.123893805309734, 24.008849557522122, -0.11504424778761062, 53.27433628318584, -0.00663716814159292, -0.015486725663716814, -0.008849557522123894, -0.008849557522123894, -0.011061946902654867, -0.022123893805309734, -6.327433628318584, 2.3893805309734546, -11.610619469026545, -2.0353982300884956, -0.17699115044247787, 1.3716814159292028, -0.008849557522123894, -0.008849557522123894, -0.01327433628318584, -0.008849557522123894, -0.008849557522123894, -0.017699115044247787, -3.814159292035398, 1.5398230088495595, 2.3185840707964616, -0.5398230088495575, -0.13274336283185842, 0.2654867256637168, -0.024336283185840708, -0.004424778761061947, -0.00663716814159292, -0.008849557522123894, -0.00663716814159292, -0.011061946902654867, -3.2389380530973453, 1.9203539823008882, 9.584070796460175, -0.5221238938053098, -0.12389380530973451, 0.9557522123893811, -0.004424778761061947, -0.01327433628318584, 0.0, 0.0, -0.004424778761061947, -0.017699115044247787, -4.946902654867257, -2.9115044247787623, 12.053097345132741, -0.2831858407079646, 0.0, 0.03539823008849652, 0.0, -0.00663716814159292, 0.0, -0.0022123893805309734, 0.0, -0.00663716814159292, -6.716814159292035, -6.238938053097343, 19.690265486725664, -0.1504424778761062, 0.0, -4.168141592920357, -0.0022123893805309734, -0.0022123893805309734, -0.004424778761061947, 0.0, 0.0, -0.011061946902654867, 0.007079646017699087, 0.1929203539823009, 0.28694690265486766, 1.0256637168141594, -0.006858407079646017, 0.0, 0.1528761061946906, -0.2853982300884955, 8.755752212389382, 6.081637168141587, 0.02123893805309729, 0.2482300884955753, -3.4692477876106187, -1.2652654867256639, -0.019469026548672573, 0.005973451327433629, -0.08207964601769846, -0.575, -14.555530973451306, -19.758628318584062, -0.0794247787610619, -2.494026548672567, -3.492256637168138, 1.7396017699115043, -0.15398230088495574, 0.01327433628318584, -0.02765486725663724, -0.25287610619469036, -16.67079646017699, -18.890044247787614, 0.05287610619469035, 0.03407079646017497, -0.3000000000000006, 1.1469026548672572, -0.11283185840707964, 0.0008849557522123895, -0.3327433628318581, 0.5438053097345127, 5.230752212389383, 8.89911504424778, 0.1553097345132743, 0.45398230088495567, 1.6504424778761049, 1.240929203539823, -0.02809734513274336, 0.0, 0.4973451327433629, -0.20154867256637185, 15.949778761061946, 15.02057522123894, -0.19889380530973452, -2.5362831858407078, -4.86216814159292, 1.3179203539823008, -0.05132743362831858, 0.019247787610619467, 0.019690265486725256, -0.46814159292035407, -20.17610619469026, -23.51836283185841, -0.059292035398230136, 1.4201327433628315, -1.1336283185840712, 1.154646017699112, 0.9823008849557522, 0.008849557522123894, -0.46946902654867234, -0.5761061946902658, 11.438495575221246, 4.4811946902654824, 0.03606194690265463, 0.9143805309734514, -1.6778761061946907, 5.348893805309738, -0.18141592920353983, 0.01592920353982301, 0.09845132743362832, -2.0179203539822996, 16.182743362831857, -5.845796460176983, -0.8681415929203542, 0.6535398230088495, -2.9396017699115067, 4.350663716814176, -0.032964601769911506, 0.013495575221238938, 0.2732300884955752, -2.8946902654867217, 6.769026548672567, -25.32278761061948, -0.2011061946902655, 0.297566371681416, -3.6393805309734493, 1.2345132743362885, -0.025663716814159295, 0.0028761061946902654, 0.25221238938053125, -1.4358407079646027, -5.481194690265495, -19.928539823008848, -0.014601769911504248, 0.277212389380531, -4.269911504424776, -0.5924778761061944, -0.016814159292035398, 0.0, 0.25331858407079644, -1.2221238938053105, -13.1400442477876, -24.67146017699117, 0.10243362831858466, 0.27898230088495585, -2.7480088495575155, -0.6426991150442465, -0.003982300884955752, 0.0, 0.28517699115044237, -0.7223451327433625, -10.526106194690279, -17.37323008849559, 0.0
0.5287610619469021, -0.5508849557522124, 8.811946902654881, 25.82964601769912, 19.07964601769912, 17.847345132743357, -26.207964601769902, -1.949115044247776, 8.995575221238937, -82.67699115044248, 50.8490990990991, -18.913953488372094, -55.71618625277162, 134.5921052631579, 11.536585365853654, -5.628318584070796, 16.371681415929203, -20.920353982300885, -0.1415929203539823, 0.0, -2.0353982300884965, -0.0022123893805309734, -0.011061946902654867, -0.011061946902654867, -0.004424778761061947, -0.004424778761061947, -0.008849557522123894, -5.619469026548672, -14.336283185840706, 35.4070796460177, -0.4336283185840708, -0.1504424778761062, -3.6371681415929196, -0.017699115044247787, -0.028761061946902654, -0.0022123893805309734, -0.004424778761061947, -0.004424778761061947, -0.015486725663716814, -16.02654867256637, -17.982300884955755, 47.67256637168141, -2.3008849557522124, -0.3185840707964602, -18.513274336283185, -0.0022123893805309734, -0.035398230088495575, -0.0022123893805309734, -0.017699115044247787, -0.011061946902654867, -0.004424778761061947, 2.637168141592923, 32.67256637168141, -7.79646017699115, -2.8230088495575223, -0.07079646017699115, 40.76991150442478, -0.011061946902654867, -0.004424778761061947, -0.004424778761061947, -0.004424778761061947, -0.004424778761061947, -0.008849557522123894, 9.725663716814159, 28.424778761061944, -19.84070796460177, -0.8141592920353983, 0.0, 24.699115044247787, 0.0, -0.017699115044247787, -0.0022123893805309734, -0.0022123893805309734, -0.00663716814159292, -0.0022123893805309734, -7.477876106194691, -22.4070796460177, 44.20353982300885, -0.7699115044247787, -0.22123893805309736, -13.876106194690266, -0.004424778761061947, -0.024336283185840708, 0.0, -0.0022123893805309734, -0.0022123893805309734, -0.0022123893805309734, 59.39823008849557, -23.84070796460177, -42.123893805309734, -3.9911504424778763, -0.11504424778761062, -18.72566371681416, -0.00663716814159292, -0.015486725663716814, -0.008849557522123894, -0.008849557522123894, -0.011061946902654867, -0.022123893805309734, 65.67256637168141, -1.6106194690265454, -43.610619469026545, -2.0353982300884956, -0.17699115044247787, 61.3716814159292, -0.008849557522123894, -0.008849557522123894, -0.01327433628318584, -0.008849557522123894, -0.008849557522123894, -0.017699115044247787, 72.1858407079646, -42.46017699115044, -41.68141592920354, -0.5398230088495575, -0.13274336283185842, -27.734513274336283, 0.9756637168141593, -0.004424778761061947, -0.00663716814159292, -0.008849557522123894, -0.00663716814159292, -0.011061946902654867, -3.2389380530973453, -6.079646017699112, 9.584070796460175, -0.5221238938053098, -0.12389380530973451, 0.9557522123893811, -0.004424778761061947, -0.01327433628318584, 0.0, 0.0, -0.004424778761061947, -0.017699115044247787, -4.946902654867257, -2.9115044247787623, 20.05309734513274, -0.2831858407079646, 0.0, 0.03539823008849652, 0.0, -0.00663716814159292, 0.0, -0.0022123893805309734, 0.0, -0.00663716814159292, -6.716814159292035, -6.238938053097343, 43.690265486725664, -0.1504424778761062, 0.0, -4.168141592920357, -0.0022123893805309734, -0.0022123893805309734, -0.004424778761061947, 0.0, 0.0, -0.011061946902654867, -0.49292035398230083, 0.1929203539823009, 1.9869469026548678, 1.0256637168141594, -0.006858407079646017, 0.0, 0.35287610619469056, -0.6853982300884955, 13.35575221238938, 8.881637168141587, 0.8212389380530972, 0.2482300884955753, -4.869247787610619, -5.465265486725664, -0.019469026548672573, 0.005973451327433629, -0.2820796460176985, 1.125, -31.35553097345131, -20.35862831858406, 1.2205752212389382, 1.0059734513274334, -2.792256637168138, -10.660398230088497, -0.15398230088495574, 0.01327433628318584, -0.22765486725663725, 2.04712389380531, -43.97079646017699, -26.290044247787613, -0.14712389380530966, 0.6340707964601755, -0.20000000000000062, 1.1469026548672572, -0.11283185840707964, 0.0008849557522123895, -0.432743362831858, 0.043805309734512576, 6.430752212389384, 7.69911504424778, -0.7446902654867258, -0.04601769911504433, 7.2504424778761045, 1.240929203539823, -0.02809734513274336, 0.0, 0.8973451327433629, -1.7015486725663718, 32.549778761061944, 19.52057522123894, 0.9011061946902655, 0.36371681415929213, -3.76216814159292, -8.4820796460177, -0.05132743362831858, 0.019247787610619467, 0.11969026548672534, 1.4318584070796456, -39.57610619469026, -27.41836283185841, 1.14070796460177, -5.979867256637169, -1.6336283185840712, 6.554646017699112, -0.31769911504424786, 0.008849557522123894, -0.7694690265486723, -0.4761061946902657, -7.861504424778754, -13.418805309734518, 1.1360619469026547, -4.385619469026548, -1.3778761061946905, 9.048893805309739, -0.18141592920353983, 0.01592920353982301, -0.8015486725663717, -0.9179203539822998, 3.0827433628318577, -9.545796460176984, 1.6318584070796458, -9.646460176991152, -8.039601769911506, 10.150663716814176, -0.032964601769911506, 0.013495575221238938, -1.5267699115044249, 2.3053097345132785, -30.830973451327434, -14.522787610619481, 2.098893805309735, 0.297566371681416, -8.139380530973447, -7.365486725663712, -0.025663716814159295, 0.0028761061946902654, -0.14778761061946877, 3.8641592920353975, -40.08119469026549, 12.171460176991154, 0.7853982300884957, 0.277212389380531, -2.769911504424776, -6.992477876106194, -0.016814159292035398, 0.0, 0.15331858407079635, 1.7778761061946895, -30.7400442477876, -12.171460176991172, 0.20243362831858466, 0.27898230088495585, -1.348008849557515, -2.5426991150442464, -0.003982300884955752, 0.0, 0.38517699115044235, 0.27765486725663746, -16.82610619469028, -9.273230088495591, 0.0
-9.471238938053098, -0.5508849557522124, 23.81194690265488, 16.82964601769912, 11.079646017699119, -18.152654867256643, -6.207964601769902, 31.050884955752224, -17.004424778761063, 52.323008849557525, 29.8490990990991, 3.086046511627906, 42.28381374722838, -13.592105263157896, -1.4634146341463463, -5.628318584070796, -7.628318584070797, 15.079646017699115, -0.1415929203539823, 0.0, -6.0353982300884965, -0.0022123893805309734, -0.011061946902654867, -0.011061946902654867, -0.004424778761061947, -0.004424778761061947, -0.008849557522123894, -5.619469026548672, 1.6637168141592937, -20.5929203539823, -0.4336283185840708, -0.1504424778761062, 0.36283185840708043, -0.017699115044247787, -0.028761061946902654, -0.0022123893805309734, -0.004424778761061947, -0.004424778761061947, -0.015486725663716814, -16.02654867256637, 34.017699115044245, -20.327433628318584, -2.3008849557522124, -0.3185840707964602, -2.5132743362831853, -0.0022123893805309734, -0.035398230088495575, -0.0022123893805309734, -0.017699115044247787, -0.011061946902654867, -0.004424778761061947, 2.637168141592923, 8.672566371681416, -7.79646017699115, -2.8230088495575223, -0.07079646017699115, 24.76991150442478, -0.011061946902654867, -0.004424778761061947, -0.004424778761061947, -0.004424778761061947, -0.004424778761061947, -0.008849557522123894, 53.72566371681416, -43.575221238938056, -19.84070796460177, -0.8141592920353983, 0.0, -27.300884955752213, 0.0, -0.017699115044247787, -0.0022123893805309734, -0.0022123893805309734, -0.00663716814159292, -0.0022123893805309734, -7.477876106194691, 25.5929203539823, -19.79646017699115, -0.7699115044247787, -0.22123893805309736, 2.1238938053097343, -0.004424778761061947, -0.024336283185840708, 0.0, -0.0022123893805309734, -0.0022123893805309734, -0.0022123893805309734, 31.398230088495573, 12.15929203539823, -42.123893805309734, -3.9911504424778763, -0.11504424778761062, 33.27433628318584, -0.00663716814159292, -0.015486725663716814, -0.008849557522123894, -0.008849557522123894, -0.011061946902654867, -0.022123893805309734, -6.327433628318584, -1.6106194690265454, 0.3893805309734546, -2.0353982300884956, -0.17699115044247787, -2.628318584070797, -0.008849557522123894, -0.008849557522123894, -0.01327433628318584, -0.008849557522123894, -0.008849557522123894, -0.017699115044247787, -3.814159292035398, 13.53982300884956, -17.68141592920354, -0.5398230088495575, -0.13274336283185842, 8.265486725663717, -0.024336283185840708, -0.004424778761061947, -0.00663716814159292, -0.008849557522123894, -0.00663716814159292, -0.011061946902654867, -3.2389380530973453, 17.920353982300888, -22.415929203539825, 15.47787610619469, -0.12389380530973451, 12.955752212389381, -0.004424778761061947, -0.01327433628318584, 0.0, 0.0, -0.004424778761061947, -0.017699115044247787, -4.946902654867257, 5.088495575221238, -7.946902654867259, -0.2831858407079646, 0.0, -3.9646017699115035, 0.0, -0.00663716814159292, 0.0, -0.0022123893805309734, 0.0, -0.00663716814159292, -6.716814159292035, 1.7610619469026574, 3.6902654867256643, -0.1504424778761062, 0.0, -4.168141592920357, -0.0022123893805309734, -0.0022123893805309734, -0.004424778761061947, 0.0, 0.0, -0.011061946902654867, 0.007079646017699087, 0.1929203539823009, -2.7130530973451323, -0.5743362831858407, -0.006858407079646017, 0.0, 0.05287610619469052, 0.11460176991150461, -9.44424778761062, -9.018362831858411, 0.9212389380530973, 0.2482300884955753, 3.330752212389381, 1.3347345132743362, -0.019469026548672573, 0.005973451327433629, -0.08207964601769846, 1.3250000000000002, 12.444469026548692, 20.74137168141594, 0.620575221238938, 1.0059734513274334, 4.307743362831862, 1.7396017699115043, -0.15398230088495574, 0.01327433628318584, -0.12765486725663727, 1.2471238938053097, 26.92920353982301, 34.80995575221239, -0.14712389380530966, -1.3659292035398245, 0.1999999999999995, 1.1469026548672572, -0.11283185840707964, 0.0008849557522123895, 0.26725663716814196, -0.5561946902654873, 1.330752212389383, -4.400884955752218, -0.7446902654867258, -3.3460176991150443, -3.4495575221238948, 1.240929203539823, -0.02809734513274336, 0.0, -0.0026548672566371057, -0.6015486725663719, -17.550221238938054, -21.77942477876106, 0.8011061946902656, 0.36371681415929213, 4.7378318584070795, 1.3179203539823008, -0.05132743362831858, 0.019247787610619467, -0.1803097345132747, 1.0318584070796457, 26.62389380530974, 33.281637168141586, 0.3407079646017699, -3.0798672566371685, 0.9663716814159289, 6.554646017699112, -0.31769911504424786, 0.008849557522123894, -0.06946902654867232, 2.4238938053097345, 13.438495575221246, 37.081194690265484, 0.7360619469026546, 0.9143805309734514, -0.6778761061946907, 0.14889380530973817, -0.18141592920353983, 0.01592920353982301, -0.4015486725663717, 6.182079646017701, 3.6827433628318573, 65.15420353982302, 0.23185840707964578, 0.6535398230088495, 4.160398230088493, 4.750663716814175, -0.032964601769911506, 0.013495575221238938, -0.5267699115044249, 6.9053097345132795, 35.969026548672566, 105.37721238938053, 0.09889380530973453, 0.297566371681416, 10.660619469026551, 3.5345132743362884, 0.8743362831858408, 0.0028761061946902654, 0.15221238938053117, 3.3641592920353975, 59.11880530973451, 95.97146017699117, -0.4146017699115042, 0.277212389380531, 9.830088495575223, 0.807522123893806, -0.016814159292035398, 0.0, -0.14668141592920358, 1.9778761061946897, 32.8599557522124, 49.62853982300883, -0.19756637168141533, 0.27898230088495585, 6.551991150442484, -0.14269911504424648, -0.003982300884955752, 0.0, -0.11482300884955765, 1.1776548672566374, 18.67389380530972, 32.92676991150441, 0.0
20.528761061946902, -0.5508849557522124, -3.1880530973451187, 9.829646017699119, 17.07964601769912, 17.847345132743357, -2.207964601769902, 26.050884955752224, -8.004424778761063, -106.67699115044248, 71.8490990990991, -17.913953488372094, -116.71618625277162, 129.5921052631579, -5.463414634146346, -5.628318584070796, -3.628318584070797, -20.920353982300885, -0.1415929203539823, 0.0, -14.035398230088497, -0.0022123893805309734, -0.011061946902654867, -0.011061946902654867, -0.004424778761061947, -0.004424778761061947, -0.008849557522123894, -5.619469026548672, -18.336283185840706, 39.4070796460177, -0.4336283185840708, -0.1504424778761062, -7.63716814159292, -0.017699115044247787, -0.028761061946902654, -0.0022123893805309734, -0.004424778761061947, -0.004424778761061947, -0.015486725663716814, -16.02654867256637, -13.982300884955755, 43.67256637168141, -2.3008849557522124, -0.3185840707964602, -14.513274336283185, -0.0022123893805309734, -0.035398230088495575, -0.0022123893805309734, -0.017699115044247787, -0.011061946902654867, -0.004424778761061947, -17.362831858407077, 40.67256637168141, -7.79646017699115, -2.8230088495575223, -0.07079646017699115, 24.76991150442478, -0.011061946902654867, -0.004424778761061947, -0.004424778761061947, -0.004424778761061947, -0.004424778761061947, -0.008849557522123894, 17.72566371681416, 24.424778761061944, -19.84070796460177, -0.8141592920353983, 0.0, 20.699115044247787, 0.0, -0.017699115044247787, -0.0022123893805309734, -0.0022123893805309734, -0.00663716814159292, -0.0022123893805309734, -7.477876106194691, -18.4070796460177, 44.20353982300885, -0.7699115044247787, -0.22123893805309736, -9.876106194690266, -0.004424778761061947, -0.024336283185840708, 0.0, -0.0022123893805309734, -0.0022123893805309734, -0.0022123893805309734, -12.601769911504425, 0.15929203539823078, 45.876106194690266, -3.9911504424778763, -0.11504424778761062, -10.72566371681416, -0.00663716814159292, -0.015486725663716814, -0.008849557522123894, -0.008849557522123894, -0.011061946902654867, -0.022123893805309734, -6.327433628318584, 10.389380530973455, 24.389380530973455, -2.0353982300884956, -0.17699115044247787, 9.371681415929203, -0.008849557522123894, -0.008849557522123894, -0.01327433628318584, -0.008849557522123894, -0.008849557522123894, -0.017699115044247787, -3.814159292035398, 1.5398230088495595, 22.31858407079646, -0.5398230088495575, -0.13274336283185842, 4.265486725663717, -0.024336283185840708, -0.004424778761061947, -0.00663716814159292, -0.008849557522123894, -0.00663716814159292, -0.011061946902654867, -3.2389380530973453, -2.079646017699112, 21.584070796460175, -0.5221238938053098, -0.12389380530973451, -3.044247787610619, -0.004424778761061947, -0.01327433628318584, 0.0, 0.0, -0.004424778761061947, -0.017699115044247787, -4.946902654867257, -2.9115044247787623, 20.05309734513274, -0.2831858407079646, 0.0, -3.9646017699115035, 0.0, -0.00663716814159292, 0.0, -0.0022123893805309734, 0.0, -0.00663716814159292, -6.716814159292035, -10.238938053097343, 35.690265486725664, -0.1504424778761062, 0.0, -8.168141592920357, -0.0022123893805309734, -0.0022123893805309734, -0.004424778761061947, 0.0, 0.0, -0.011061946902654867, -0.39292035398230085, 0.1929203539823009, -3.313053097345132, 1.0256637168141594, -0.006858407079646017, 0.0, -0.14712389380530944, -1.7853982300884956, -7.444247787610619, -22.21836283185841, 0.7212389380530972, 0.2482300884955753, -5.369247787610619, -5.365265486725664, -0.019469026548672573, 0.005973451327433629, -0.3820796460176985, -0.375, -33.85553097345131, -35.05862831858406, 0.9205752212389381, 1.0059734513274334, -1.992256637168138, -6.060398230088495, -0.15398230088495574, 0.01327433628318584, -0.12765486725663727, 1.2471238938053097, -25.47079646017699, -12.790044247787613, -0.24712389380530966, 3.634070796460175, 1.9999999999999993, 1.1469026548672572, -0.11283185840707964, 0.0008849557522123895, 0.36725663716814194, 0.24380530973451264, 22.130752212389382, 23.59911504424778, -0.24469026548672573, -0.24601769911504429, 2.150442477876105, 1.240929203539823, -0.02809734513274336, 0.0, 0.5973451327433629, -1.401548672566372, 12.649778761061949, 2.02057522123894, 0.7011061946902655, 0.36371681415929213, -3.26216814159292, -6.782079646017699, -0.05132743362831858, 0.019247787610619467, -0.5803097345132747, 0.8318584070796459, -33.176106194690256, -25.818362831858412, -0.6592920353982301, 1.4201327433628315, -1.1336283185840712, 4.654646017699113, -0.31769911504424786, 0.008849557522123894, -0.8694690265486722, -0.27610619469026576, 11.038495575221248, 7.381194690265483, -0.8639380530973454, 0.9143805309734514, -2.8778761061946905, 4.848893805309738, -0.18141592920353983, 0.01592920353982301, 0.09845132743362832, -2.3179203539823, 6.182743362831857, -19.745796460176983, -0.5681415929203542, 0.6535398230088495, -4.339601769911506, -3.0493362831858235, -0.032964601769911506, 0.013495575221238938, 0.37323008849557515, -2.0946902654867214, -25.830973451327434, -52.12278761061948, 0.5988938053097345, 0.297566371681416, -5.439380530973448, -7.365486725663712, -0.025663716814159295, 0.0028761061946902654, 0.25221238938053125, -1.135840707964603, -42.08119469026549, -50.228539823008845, 0.9853982300884957, 0.277212389380531, -5.4699115044247755, -6.892477876106194, -0.016814159292035398, 0.0, 0.05331858407079637, -0.5221238938053105, -36.4400442477876, -37.87146017699117, 0.8024336283185847, 0.27898230088495585, -4.848008849557515, -4.942699115044247, -0.003982300884955752, 0.0, -0.11482300884955765, -0.4223451327433625, -31.32610619469028, -31.573230088495592, 0.0
11.528761061946902, -0.5508849557522124, -6.188053097345119, -3.170353982300881, 44.07964601769912, -7.1526548672566435, 49.7920353982301, 90.05088495575222, 1.995575221238937, -191.67699115044246, -23.1509009009009, 14.086046511627906, -65.71618625277162, -13.592105263157896, -4.463414634146346, -5.628318584070796, -15.628318584070797, 47.07964601769912, -0.1415929203539823, 0.0, -14.035398230088497, -0.0022123893805309734, -0.011061946902654867, -0.011061946902654867, -0.004424778761061947, -0.004424778761061947, -0.008849557522123894, -5.619469026548672, -14.336283185840706, 55.4070796460177, -0.4336283185840708, -0.1504424778761062, -11.63716814159292, -0.017699115044247787, -0.028761061946902654, -0.0022123893805309734, -0.004424778761061947, -0.004424778761061947, -0.015486725663716814, -16.02654867256637, -9.982300884955755, -4.327433628318584, 9.699115044247787, 23.68141592920354, -14.513274336283185, -0.0022123893805309734, -0.035398230088495575, -0.0022123893805309734, -0.017699115044247787, -0.011061946902654867, -0.004424778761061947, -45.36283185840708, -3.327433628318584, 24.20353982300885, 81.17699115044248, -0.07079646017699115, 40.76991150442478, -0.011061946902654867, -0.004424778761061947, -0.004424778761061947, -0.004424778761061947, -0.004424778761061947, -0.008849557522123894, -10.274336283185841, -11.575221238938056, 72.15929203539824, -0.8141592920353983, 0.0, -11.300884955752213, 0.0, -0.017699115044247787, -0.0022123893805309734, -0.0022123893805309734, -0.00663716814159292, -0.0022123893805309734, 20.522123893805308, -22.4070796460177, 60.20353982300885, -0.7699115044247787, -0.22123893805309736, 10.123893805309734, -0.004424778761061947, -0.024336283185840708, 0.0, -0.0022123893805309734, -0.0022123893805309734, -0.0022123893805309734, -12.601769911504425, 4.159292035398231, -6.123893805309734, 76.00884955752213, -0.11504424778761062, 77.27433628318585, -0.00663716814159292, -0.015486725663716814, -0.008849557522123894, -0.008849557522123894, -0.011061946902654867, -0.022123893805309734, -6.327433628318584, 6.389380530973455, 16.389380530973455, -2.0353982300884956, -0.17699115044247787, 1.3716814159292028, -0.008849557522123894, -0.008849557522123894, -0.01327433628318584, -0.008849557522123894, -0.008849557522123894, -0.017699115044247787, -3.814159292035398, 5.5398230088495595, 42.31858407079646, -0.5398230088495575, -0.13274336283185842, 8.265486725663717, -0.024336283185840708, -0.004424778761061947, -0.00663716814159292, -0.008849557522123894, -0.00663716814159292, -0.011061946902654867, -3.2389380530973453, -2.079646017699112, 37.584070796460175, -0.5221238938053098, -0.12389380530973451, 0.9557522123893811, -0.004424778761061947, -0.01327433628318584, 0.0, 0.0, -0.004424778761061947, -0.017699115044247787, -4.946902654867257, -10.911504424778762, 48.05309734513274, -0.2831858407079646, 0.0, -11.964601769911503, 0.0, -0.00663716814159292, 0.0, -0.0022123893805309734, 0.0, -0.00663716814159292, 9.283185840707965, -10.238938053097343, 59.690265486725664, -0.1504424778761062, 0.0, 3.8318584070796433, -0.0022123893805309734, -0.0022123893805309734, -0.004424778761061947, 0.0, 0.0, -0.011061946902654867, 0.3070796460176991, 0.1929203539823009, -3.513053097345132, -2.2743362831858405, -0.006858407079646017, 0.0, -0.2471238938053094, -0.08539823008849545, -20.54424778761062, -20.318362831858412, 0.32123893805309733, 0.2482300884955753, -2.9692477876106187, -1.5652654867256637, -0.019469026548672573, 0.005973451327433629, -0.2820796460176985, -0.375, -19.555530973451308, -22.95862831858406, -0.6794247787610619, 1.0059734513274334, -1.392256637168138, 0.9396017699115042, 0.34601769911504426, -1.1867256637168142, -0.02765486725663724, -0.8528761061946903, -1.0707964601769913, -7.990044247787614, -0.04712389380530965, 5.234070796460175, -0.5000000000000006, -2.353097345132743, 2.2871681415929204, 0.0008849557522123895, 0.16725663716814199, 0.24380530973451264, 20.330752212389385, 22.29911504424778, 0.1553097345132743, 0.45398230088495567, -2.049557522123895, 0.3409292035398229, -0.02809734513274336, 0.0, -0.30265486725663715, 0.4984513274336282, -7.350221238938053, -3.7794247787610606, -0.19889380530973452, -0.23628318584070784, -1.66216814159292, -0.7820796460176993, -0.05132743362831858, 0.019247787610619467, -0.08030973451327472, -0.46814159292035407, -14.576106194690258, -18.118362831858413, -0.5592920353982301, 1.4201327433628315, -0.43362831858407125, 2.2546460176991125, 5.482300884955752, 0.008849557522123894, 0.9305309734513276, -1.9761061946902658, 35.838495575221245, 8.881194690265483, 0.5360619469026546, 0.9143805309734514, -1.1778761061946907, -0.05110619469026112, -0.18141592920353983, 0.01592920353982301, -0.5015486725663717, -1.3179203539822997, -3.7172566371681413, -14.045796460176984, 1.1318584070796458, 0.6535398230088495, 0.9603982300884937, -8.549336283185824, -0.032964601769911506, 0.013495575221238938, -1.126769911504425, -1.4946902654867218, -48.630973451327435, -56.22278761061948, 1.4988938053097345, 0.297566371681416, 3.960619469026552, -8.365486725663711, -0.025663716814159295, 0.0028761061946902654, 0.15221238938053117, -0.8358407079646029, -36.9811946902655, -40.228539823008845, 0.6853982300884958, 0.277212389380531, -0.5699115044247751, -2.8924778761061942, -0.016814159292035398, 0.0, -0.04668141592920361, -0.7221238938053105, -27.0400442477876, -30.27146017699117, 0.40243362831858465, -0.12101769911504417, -2.648008849557515, -2.0426991150442464, -0.003982300884955752, 0.0, -0.11482300884955765, -0.4223451327433625, -22.226106194690278, -22.97323008849559, 0.0
3.528761061946902, -0.5508849557522124, 3.8119469026548813, 11.829646017699119, 3.079646017699119, 22.847345132743357, -46.2079646017699, 26.050884955752224, 8.995575221238937, 20.323008849557525, 58.8490990990991, -5.913953488372094, 46.28381374722838, -13.592105263157896, -4.463414634146346, 14.371681415929203, -23.628318584070797, 3.0796460176991154, -0.1415929203539823, 0.0, 1.9646017699115035, -0.0022123893805309734, -0.011061946902654867, -0.011061946902654867, -0.004424778761061947, -0.004424778761061947, -0.008849557522123894, -5.619469026548672, -6.336283185840706, 15.4070796460177, -0.4336283185840708, -0.1504424778761062, 0.36283185840708043, -0.017699115044247787, -0.028761061946902654, -0.0022123893805309734, -0.004424778761061947, -0.004424778761061947, -0.015486725663716814, -16.02654867256637, -5.982300884955755, 3.672566371681416, 25.699115044247787, -0.3185840707964602, -6.513274336283185, -0.0022123893805309734, -0.035398230088495575, -0.0022123893805309734, -0.017699115044247787, -0.011061946902654867, -0.004424778761061947, -17.362831858407077, 8.672566371681416, -7.79646017699115, -2.8230088495575223, -0.07079646017699115, 8.76991150442478, -0.011061946902654867, -0.004424778761061947, -0.004424778761061947, -0.004424778761061947, -0.004424778761061947, -0.008849557522123894, 21.72566371681416, -15.575221238938056, 0.15929203539823078, -0.8141592920353983, 0.0, 16.699115044247787, 0.0, -0.017699115044247787, -0.0022123893805309734, 0.9977876106194691, -0.00663716814159292, -0.0022123893805309734, -7.477876106194691, -14.4070796460177, 8.20353982300885, -0.7699115044247787, -0.22123893805309736, -5.876106194690266, -0.004424778761061947, -0.024336283185840708, 0.0, -0.0022123893805309734, -0.0022123893805309734, -0.0022123893805309734, 55.39823008849557, -23.84070796460177, -42.123893805309734, -3.9911504424778763, -0.11504424778761062, -18.72566371681416, -0.00663716814159292, -0.015486725663716814, -0.008849557522123894, -0.008849557522123894, -0.011061946902654867, -0.022123893805309734, 81.67256637168141, -33.610619469026545, -43.610619469026545, -2.0353982300884956, -0.17699115044247787, -22.628318584070797, -0.008849557522123894, -0.008849557522123894, 0.9867256637168141, -0.008849557522123894, 0.9911504424778761, -0.017699115044247787, 80.1858407079646, -42.46017699115044, -41.68141592920354, -0.5398230088495575, -0.13274336283185842, -27.734513274336283, -0.024336283185840708, -0.004424778761061947, -0.00663716814159292, 0.9911504424778761, -0.00663716814159292, -0.011061946902654867, 76.76106194690266, -46.07964601769911, -42.415929203539825, -0.5221238938053098, -0.12389380530973451, -31.04424778761062, -0.004424778761061947, -0.01327433628318584, 0.0, 0.0, 0.995575221238938, -0.017699115044247787, 75.05309734513274, -46.91150442477876, -39.94690265486726, -0.2831858407079646, 0.0, -31.964601769911503, 0.0, -0.00663716814159292, 0.0, -0.0022123893805309734, 0.0, -0.00663716814159292, 61.283185840707965, -50.23893805309734, -28.309734513274336, -0.1504424778761062, 0.0, -32.16814159292036, -0.0022123893805309734, -0.0022123893805309734, -0.004424778761061947, 0.0, 0.0, -0.011061946902654867, 1.0070796460176992, -0.6070796460176991, -2.013053097345132, -0.7743362831858407, -0.006858407079646017, 0.0, 0.35287610619469056, -0.9853982300884955, -11.14424778761062, -18.118362831858413, 0.6212389380530973, 0.2482300884955753, -5.2692477876106185, 0.7347345132743363, -0.019469026548672573, 0.005973451327433629, 0.41792035398230143, -0.375, -13.455530973451307, -17.258628318584062, -0.1794247787610619, 1.0059734513274334, -0.892256637168138, -2.460398230088496, 1.1460176991150444, 0.01327433628318584, 0.07234513274336274, 0.7471238938053097, -1.2707964601769914, 2.609955752212386, -0.5471238938053097, 3.734070796460175, 0.09999999999999942, 1.1469026548672572, -0.11283185840707964, 0.0008849557522123895, -0.432743362831858, 0.6438053097345127, 14.930752212389384, 19.69911504424778, 0.5553097345132743, -1.5460176991150443, -0.04955752212389486, 0.04092920353982299, -0.02809734513274336, 0.0, 0.697345132743363, -1.101548672566372, -5.1502212389380535, -12.67942477876106, 0.2011061946902655, 0.36371681415929213, -2.76216814159292, -0.982079646017699, -0.05132743362831858, 0.019247787610619467, 0.3196902654867253, 0.231858407079646, -9.276106194690259, -7.618362831858411, -0.2592920353982301, -4.879867256637168, -1.6336283185840712, 6.554646017699112, -0.31769911504424786, 0.008849557522123894, -0.2694690265486723, 0.9238938053097343, -2.6615044247787516, 6.281194690265483, 0.23606194690265458, -12.185619469026548, -3.9778761061946906, 9.048893805309739, -0.18141592920353983, 0.01592920353982301, -0.9015486725663717, -0.5179203539822996, -39.61725663716814, -45.24579646017698, 1.231858407079646, -18.74646017699115, -8.039601769911506, 10.150663716814176, -0.032964601769911506, 0.013495575221238938, 0.2732300884955752, -1.3946902654867217, -73.13097345132743, -86.82278761061949, 3.3988938053097346, -16.402433628318583, -11.839380530973449, 7.034513274336288, -0.025663716814159295, 0.0028761061946902654, 0.25221238938053125, 0.264159292035397, -76.88119469026549, -76.12853982300885, 2.3853982300884957, -9.222787610619468, -11.369911504424776, 3.6075221238938058, -0.016814159292035398, 0.0, 0.25331858407079644, -0.12212389380531041, -55.8400442477876, -57.171460176991175, 1.2024336283185848, -3.821017699115044, -9.048008849557515, 1.4573008849557536, -0.003982300884955752, 0.0, 0.28517699115044237, -1.4223451327433625, -33.22610619469028, -44.57323008849559, 0.0
-3.471238938053098, -0.5508849557522124, 5.811946902654881, 21.82964601769912, -17.92035398230088, 26.847345132743357, -11.207964601769902, -38.949115044247776, 14.995575221238937, -19.676991150442475, -22.1509009009009, -4.913953488372094, -23.71618625277162, -13.592105263157896, 6.536585365853654, -5.628318584070796, 8.371681415929203, -20.920353982300885, -0.1415929203539823, 0.0, 1.9646017699115035, -0.0022123893805309734, -0.011061946902654867, -0.011061946902654867, -0.004424778761061947, -0.004424778761061947, -0.008849557522123894, -5.619469026548672, -2.3362831858407063, -20.5929203539823, -0.4336283185840708, -0.1504424778761062, -7.63716814159292, -0.017699115044247787, -0.028761061946902654, -0.0022123893805309734, -0.004424778761061947, -0.004424778761061947, -0.015486725663716814, 39.97345132743363, -41.982300884955755, -20.327433628318584, -2.3008849557522124, -0.3185840707964602, -30.513274336283185, -0.0022123893805309734, -0.035398230088495575, -0.0022123893805309734, -0.017699115044247787, -0.011061946902654867, -0.004424778761061947, 10.637168141592923, -3.327433628318584, -7.79646017699115, -2.8230088495575223, -0.07079646017699115, 28.76991150442478, -0.011061946902654867, -0.004424778761061947, -0.004424778761061947, -0.004424778761061947, -0.004424778761061947, -0.008849557522123894, -10.274336283185841, 12.424778761061944, 0.15929203539823078, -0.8141592920353983, 0.0, 0.6991150442477867, 0.0, -0.017699115044247787, -0.0022123893805309734, -0.0022123893805309734, -0.00663716814159292, -0.0022123893805309734, 12.52212389380531, -6.407079646017699, -19.79646017699115, -0.7699115044247787, -0.22123893805309736, 2.1238938053097343, -0.004424778761061947, -0.024336283185840708, 0.0, -0.0022123893805309734, -0.0022123893805309734, -0.0022123893805309734, -12.601769911504425, 12.15929203539823, 5.876106194690266, -3.9911504424778763, -0.11504424778761062, 1.2743362831858391, -0.00663716814159292, -0.015486725663716814, -0.008849557522123894, -0.008849557522123894, -0.011061946902654867, -0.022123893805309734, -6.327433628318584, -9.610619469026545, 16.389380530973455, -2.0353982300884956, -0.17699115044247787, -10.628318584070797, -0.008849557522123894, -0.008849557522123894, -0.01327433628318584, -0.008849557522123894, -0.008849557522123894, -0.017699115044247787, 60.1858407079646, -42.46017699115044, -41.68141592920354, -0.5398230088495575, -0.13274336283185842, -27.734513274336283, -0.024336283185840708, -0.004424778761061947, -0.00663716814159292, -0.008849557522123894, -0.00663716814159292, -0.011061946902654867, 20.761061946902654, 17.920353982300888, -42.415929203539825, -0.5221238938053098, -0.12389380530973451, 12.955752212389381, -0.004424778761061947, 0.9867256637168141, 0.0, 0.0, -0.004424778761061947, -0.017699115044247787, -4.946902654867257, 9.088495575221238, -23.94690265486726, -0.2831858407079646, 0.0, 4.0353982300884965, 0.0, -0.00663716814159292, 0.0, -0.0022123893805309734, 0.0, -0.00663716814159292, -6.716814159292035, 5.761061946902657, -0.30973451327433565, -0.1504424778761062, 0.0, -0.1681415929203567, -0.0022123893805309734, -0.0022123893805309734, -0.004424778761061947, 0.0, 0.0, -0.011061946902654867, 0.5070796460176991, 0.1929203539823009, 1.5869469026548675, 1.0256637168141594, -0.006858407079646017, 0.0, 0.35287610619469056, 0.41460176991150444, 8.955752212389381, 11.481637168141585, -0.27876106194690276, 0.2482300884955753, -0.869247787610619, 1.3347345132743362, -0.019469026548672573, 0.005973451327433629, 0.017920353982301518, -0.17500000000000004, -0.655530973451306, -3.058628318584063, -0.6794247787610619, -1.6940265486725667, -3.492256637168138, 1.7396017699115043, -0.15398230088495574, 0.01327433628318584, -0.02765486725663724, -1.2528761061946905, -10.170796460176991, -19.19004424778761, -0.14712389380530966, -0.46592920353982503, -0.4000000000000006, 1.1469026548672572, -0.11283185840707964, 0.0008849557522123895, -0.23274336283185804, -0.35619469026548733, 0.13075221238938362, -2.200884955752219, 0.1553097345132743, 0.45398230088495567, -0.04955752212389486, 0.640929203539823, -0.02809734513274336, 0.0, 0.3973451327433629, 0.4984513274336282, 3.449778761061947, 7.02057522123894, -0.09889380530973453, -0.5362831858407079, -2.26216814159292, 1.3179203539823008, -0.05132743362831858, 0.019247787610619467, 0.21969026548672532, -0.16814159292035413, -4.976106194690259, -7.2183628318584105, 0.44070796460177, 1.4201327433628315, 0.16637168141592884, -1.9453539823008876, -0.31769911504424786, 0.008849557522123894, 0.6305309734513277, 0.8238938053097342, 1.5384955752212477, 12.081194690265484, 1.7360619469026548, 0.9143805309734514, -3.2778761061946904, -0.8511061946902618, -0.18141592920353983, 0.01592920353982301, 0.1984513274336283, 1.3820796460177003, -10.91725663716814, 14.454203539823016, 1.231858407079646, -2.9464601769911507, -8.039601769911506, 10.150663716814176, -0.032964601769911506, 0.013495575221238938, 0.37323008849557515, -0.2946902654867216, -3.230973451327433, 4.277212389380523, 0.5988938053097345, -0.402433628318584, -7.039380530973449, 7.034513274336288, -0.025663716814159295, 0.0028761061946902654, 0.4522123893805312, -0.5358407079646028, 4.4188053097345055, 3.5714601769911525, 0.3853982300884957, 0.277212389380531, -2.9699115044247755, 2.5075221238938057, -0.016814159292035398, 0.0, 0.3533185840707964, -0.2221238938053105, 4.8599557522124, 6.628539823008829, 0.10243362831858466, 0.27898230088495585, -0.6480088495575149, 0.4573008849557536, -0.003982300884955752, 0.0, 0.28517699115044237, -0.022345132743362583, 2.773893805309722, 6.0267699115044095, 0.0
16.528761061946902, -0.5508849557522124, -6.188053097345119, 11.829646017699119, -5.920353982300881, 24.847345132743357, 13.792035398230098, -24.949115044247776, -22.004424778761063, 48.323008849557525, 42.8490990990991, 8.086046511627906, 45.28381374722838, -13.592105263157896, -24.463414634146346, -5.628318584070796, -11.628318584070797, 19.079646017699115, -0.1415929203539823, 0.0, -6.0353982300884965, -0.0022123893805309734, -0.011061946902654867, -0.011061946902654867, -0.004424778761061947, -0.004424778761061947, -0.008849557522123894, -5.619469026548672, 37.663716814159294, -20.5929203539823, -0.4336283185840708, -0.1504424778761062, 4.36283185840708, -0.017699115044247787, -0.028761061946902654, -0.0022123893805309734, -0.004424778761061947, -0.004424778761061947, -0.015486725663716814, -16.02654867256637, 50.017699115044245, -20.327433628318584, -2.3008849557522124, -0.3185840707964602, 1.4867256637168147, -0.0022123893805309734, -0.035398230088495575, -0.0022123893805309734, -0.017699115044247787, -0.011061946902654867, -0.004424778761061947, 14.637168141592923, -19.327433628318584, -7.79646017699115, -2.8230088495575223, -0.07079646017699115, -31.23008849557522, -0.011061946902654867, -0.004424778761061947, -0.004424778761061947, -0.004424778761061947, -0.004424778761061947, -0.008849557522123894, 77.72566371681415, -43.575221238938056, -19.84070796460177, -0.8141592920353983, 0.0, -27.300884955752213, 0.0, -0.017699115044247787, -0.0022123893805309734, -0.0022123893805309734, -0.00663716814159292, -0.0022123893805309734, -7.477876106194691, 37.5929203539823, -19.79646017699115, -0.7699115044247787, -0.22123893805309736, 6.123893805309734, -0.004424778761061947, -0.024336283185840708, 0.0, -0.0022123893805309734, -0.0022123893805309734, -0.0022123893805309734, 51.39823008849557, -23.84070796460177, -42.123893805309734, -3.9911504424778763, -0.11504424778761062, -18.72566371681416, -0.00663716814159292, -0.015486725663716814, -0.008849557522123894, -0.008849557522123894, -0.011061946902654867, -0.022123893805309734, 65.67256637168141, -33.610619469026545, -43.610619469026545, -2.0353982300884956, -0.17699115044247787, -22.628318584070797, -0.008849557522123894, -0.008849557522123894, -0.01327433628318584, -0.008849557522123894, -0.008849557522123894, -0.017699115044247787, -3.814159292035398, -10.46017699115044, 10.318584070796462, -0.5398230088495575, -0.13274336283185842, -11.734513274336283, -0.024336283185840708, -0.004424778761061947, -0.00663716814159292, -0.008849557522123894, -0.00663716814159292, -0.011061946902654867, -3.2389380530973453, 5.920353982300888, -2.415929203539825, -0.5221238938053098, -0.12389380530973451, 4.955752212389381, -0.004424778761061947, -0.01327433628318584, 0.0, 0.0, -0.004424778761061947, -0.017699115044247787, -4.946902654867257, 5.088495575221238, -3.9469026548672588, -0.2831858407079646, 0.0, 0.03539823008849652, 0.0, -0.00663716814159292, 0.0, -0.0022123893805309734, 0.0, -0.00663716814159292, -6.716814159292035, 5.761061946902657, -28.309734513274336, -0.1504424778761062, 0.0, -0.1681415929203567, -0.0022123893805309734, -0.0022123893805309734, -0.004424778761061947, 0.0, 0.0, -0.011061946902654867, 0.10707964601769909, 0.1929203539823009, -2.813053097345132, -0.5743362831858407, -0.006858407079646017, 0.0, -0.4471238938053094, -0.6853982300884955, -10.64424778761062, -16.318362831858412, 0.1212389380530973, 0.2482300884955753, 1.6307522123893818, 1.3347345132743362, -0.019469026548672573, 0.005973451327433629, -0.5820796460176985, 0.5249999999999999, 23.444469026548692, 25.941371681415937, 0.12057522123893812, 1.0059734513274334, 2.6077433628318616, 1.7396017699115043, -0.15398230088495574, 0.01327433628318584, -0.02765486725663724, 1.1471238938053097, 25.32920353982301, 32.609955752212386, 0.05287610619469035, -0.8659292035398245, -0.9000000000000006, 1.1469026548672572, -0.11283185840707964, 0.0008849557522123895, 0.36725663716814194, -0.4561946902654874, -2.669247787610617, -6.900884955752218, -0.04469026548672572, -1.4460176991150442, -3.4495575221238948, 1.240929203539823, -0.02809734513274336, 0.0, 0.19734513274336288, -1.0015486725663718, -13.750221238938053, -20.87942477876106, 0.0011061946902654772, 0.36371681415929213, 2.2378318584070795, 1.3179203539823008, -0.05132743362831858, 0.019247787610619467, -0.2803097345132747, 1.4318584070796456, 21.42389380530974, 32.58163716814159, 0.5407079646017698, -6.279867256637169, -1.6336283185840712, 6.554646017699112, -0.31769911504424786, 0.008849557522123894, 0.3305309734513277, 0.8238938053097342, -5.861504424778754, -2.118805309734517, 0.13606194690265472, -12.085619469026549, -3.9778761061946906, 9.048893805309739, -0.18141592920353983, 0.01592920353982301, -0.0015486725663716929, -0.5179203539822996, -28.81725663716814, -39.44579646017698, -0.6681415929203542, 0.6535398230088495, -5.939601769911507, 2.350663716814176, -0.032964601769911506, 0.013495575221238938, -0.22676991150442485, 0.005309734513278208, -8.630973451327431, -16.62278761061948, -0.6011061946902655, 0.297566371681416, 2.060619469026552, 3.0345132743362884, -0.025663716814159295, 0.0028761061946902654, -0.14778761061946877, 0.3641592920353971, 18.018805309734507, 12.671460176991154, -0.014601769911504248, 0.277212389380531, 0.4300884955752249, 1.8075221238938057, -0.016814159292035398, 0.0, -0.24668141592920362, 0.5778761061946893, 9.5599557522124, 10.128539823008829, -0.3975663716814153, 0.27898230088495585, -0.5480088495575153, 1.4573008849557536, -0.003982300884955752, 0.0, -0.31482300884955766, 0.27765486725663746, 4.4738938053097215, 3.0267699115044095, 0.0
10.528761061946902, -0.5508849557522124, 5.811946902654881, 5.829646017699119, 4.079646017699119, 1.8473451327433565, 8.792035398230098, 85.05088495575222, 9.995575221238937, -0.6769911504424755, 14.8490990990991, 18.086046511627906, -2.716186252771621, -110.40789473684211, 2.5365853658536537, 6.371681415929204, 4.371681415929203, -20.920353982300885, -0.1415929203539823, 0.0, 1.9646017699115035, -0.0022123893805309734, -0.011061946902654867, -0.011061946902654867, -0.004424778761061947, -0.004424778761061947, -0.008849557522123894, 22.38053097345133, -2.3362831858407063, -20.5929203539823, -0.4336283185840708, -0.1504424778761062, 12.36283185840708, -0.017699115044247787, -0.028761061946902654, -0.0022123893805309734, -0.004424778761061947, -0.004424778761061947, -0.015486725663716814, 19.97345132743363, 6.017699115044245, -20.327433628318584, -2.3008849557522124, -0.3185840707964602, 13.486725663716815, -0.0022123893805309734, -0.035398230088495575, -0.0022123893805309734, -0.017699115044247787, -0.011061946902654867, -0.004424778761061947, -45.36283185840708, -3.327433628318584, 48.20353982300885, -2.8230088495575223, -0.07079646017699115, -23.23008849557522, -0.011061946902654867, -0.004424778761061947, -0.004424778761061947, -0.004424778761061947, -0.004424778761061947, -0.008849557522123894, -10.274336283185841, 0.424778761061944, 28.15929203539823, -0.8141592920353983, 0.0, -3.3008849557522133, 0.0, -0.017699115044247787, -0.0022123893805309734, -0.0022123893805309734, -0.00663716814159292, -0.0022123893805309734, 24.522123893805308, -2.4070796460176993, -19.79646017699115, -0.7699115044247787, -0.22123893805309736, 14.123893805309734, -0.004424778761061947, -0.024336283185840708, 0.0, -0.0022123893805309734, -0.0022123893805309734, -0.0022123893805309734, -12.601769911504425, 24.15929203539823, 5.876106194690266, -3.9911504424778763, -0.11504424778761062, 13.27433628318584, -0.00663716814159292, -0.015486725663716814, -0.008849557522123894, -0.008849557522123894, -0.011061946902654867, -0.022123893805309734, -6.327433628318584, 18.389380530973455, 0.3893805309734546, -2.0353982300884956, -0.17699115044247787, 13.371681415929203, -0.008849557522123894, -0.008849557522123894, -0.01327433628318584, -0.008849557522123894, -0.008849557522123894, -0.017699115044247787, -3.814159292035398, 17.53982300884956, 14.318584070796462, -0.5398230088495575, -0.13274336283185842, 16.265486725663717, -0.024336283185840708, -0.004424778761061947, -0.00663716814159292, -0.008849557522123894, -0.00663716814159292, -0.011061946902654867, -3.2389380530973453, 5.920353982300888, 9.584070796460175, -0.5221238938053098, -0.12389380530973451, 4.955752212389381, -0.004424778761061947, -0.01327433628318584, 0.0, 0.0, -0.004424778761061947, -0.017699115044247787, -4.946902654867257, -6.911504424778762, 8.053097345132741, -0.2831858407079646, 0.0, -7.9646017699115035, 0.0, -0.00663716814159292, 0.0, -0.0022123893805309734, 0.0, -0.00663716814159292, 21.283185840707965, -2.2389380530973426, -28.309734513274336, -0.1504424778761062, 0.0, 7.831858407079643, -0.0022123893805309734, -0.0022123893805309734, -0.004424778761061947, 0.0, 0.0, -0.011061946902654867, -0.49292035398230083, -0.20707964601769913, 2.686946902654867, 1.0256637168141594, -0.006858407079646017, 0.0, -0.04712389380530946, -0.4853982300884955, 10.255752212389382, 6.181637168141588, -0.8787610619469027, -2.6517699115044246, 3.2307522123893815, 1.3347345132743362, -0.019469026548672573, 0.005973451327433629, 0.41792035398230143, -0.775, 6.044469026548693, -1.5586283185840628, -0.5794247787610619, -4.294026548672567, 1.7077433628318621, 1.7396017699115043, -0.15398230088495574, 0.01327433628318584, 0.47234513274336276, -0.15287610619469033, 0.22920353982300856, -1.5900442477876133, 0.7528761061946904, 5.234070796460175, -0.3000000000000006, -8.353097345132742, -0.11283185840707964, 0.0008849557522123895, -0.13274336283185806, 0.7438053097345126, -10.569247787610616, -4.700884955752219, 0.055309734513274283, 0.45398230088495567, 2.7504424778761054, 0.14092920353982286, -0.02809734513274336, 0.0, -0.30265486725663715, -0.40154867256637183, 5.549778761061947, 3.1205752212389397, -0.7988938053097345, -3.0362831858407078, 2.33783185840708, 1.3179203539823008, -0.05132743362831858, 0.019247787610619467, 0.3196902654867253, -0.46814159292035407, 2.0238938053097417, -2.618362831858411, 0.5407079646017698, 1.4201327433628315, 8.366371681415929, -6.845353982300888, -0.31769911504424786, 0.008849557522123894, -1.1694690265486722, 2.2238938053097344, 10.638495575221247, 36.581194690265484, 0.3360619469026547, 0.9143805309734514, 24.522123893805308, -10.451106194690261, -0.18141592920353983, 0.01592920353982301, 0.3984513274336283, 5.0820796460177, 49.18274336283186, 113.354203539823, -0.8681415929203542, 0.6535398230088495, 18.660398230088493, -6.449336283185826, -0.032964601769911506, 0.013495575221238938, 0.17323008849557517, 0.3053097345132785, 41.96902654867257, 51.677212389380514, -1.4011061946902654, 0.297566371681416, 9.160619469026551, -1.865486725663712, -0.025663716814159295, 0.0028761061946902654, -0.14778761061946877, -1.9358407079646027, 21.418805309734505, 2.471460176991151, -1.0146017699115042, 0.277212389380531, 3.0300884955752245, 1.0075221238938057, -0.016814159292035398, 0.0, -0.04668141592920361, -1.4221238938053105, 4.759955752212402, -7.7714601769911695, -0.4975663716814154, -1.621017699115044, 0.3519911504424851, 1.4573008849557536, -0.003982300884955752, 0.0, -0.014823008849557673, -0.9223451327433625, 0.5738938053097193, -7.073230088495592, 0.0
7.528761061946902, 0.4491150442477876, -6.188053097345119, -5.170353982300881, -6.920353982300881, 2.8473451327433565, 42.7920353982301, -28.949115044247776, -3.004424778761063, -8.676991150442475, 36.1509009009009, 13.086046511627906, 2.283813747228379, -13.592105263157896, -20.463414634146346, -5.628318584070796, -3.628318584070797, -20.920353982300885, -0.1415929203539823, 0.0, -6.0353982300884965, -0.0022123893805309734, -0.011061946902654867, -0.011061946902654867, -0.004424778761061947, -0.004424778761061947, -0.008849557522123894, -5.619469026548672, -10.336283185840706, 19.4070796460177, -0.4336283185840708, -0.1504424778761062, -3.6371681415929196, -0.017699115044247787, -0.028761061946902654, -0.0022123893805309734, -0.004424778761061947, -0.004424778761061947, -0.015486725663716814, -16.02654867256637, -1.9823008849557553, 11.672566371681416, -2.3008849557522124, -0.3185840707964602, -2.5132743362831853, -0.0022123893805309734, -0.035398230088495575, -0.0022123893805309734, -0.017699115044247787, -0.011061946902654867, -0.004424778761061947, -1.3628318584070769, 16.672566371681416, -7.79646017699115, -2.8230088495575223, -0.07079646017699115, 20.76991150442478, -0.011061946902654867, -0.004424778761061947, -0.004424778761061947, -0.004424778761061947, -0.004424778761061947, -0.008849557522123894, 17.72566371681416, 0.424778761061944, -19.84070796460177, -0.8141592920353983, 0.0, 16.699115044247787, 0.0, -0.017699115044247787, -0.0022123893805309734, -0.0022123893805309734, -0.00663716814159292, -0.0022123893805309734, -7.477876106194691, -6.407079646017699, 8.20353982300885, -0.7699115044247787, -0.22123893805309736, -1.8761061946902657, -0.004424778761061947, -0.024336283185840708, 0.0, -0.0022123893805309734, -0.0022123893805309734, -0.0022123893805309734, -12.601769911504425, -3.840707964601769, 17.876106194690266, -3.9911504424778763, -0.11504424778761062, -6.725663716814161, -0.00663716814159292, -0.015486725663716814, -0.008849557522123894, -0.008849557522123894, -0.011061946902654867, -0.022123893805309734, -6.327433628318584, -5.610619469026545, 12.389380530973455, -2.0353982300884956, -0.17699115044247787, -6.628318584070797, -0.008849557522123894, -0.008849557522123894, -0.01327433628318584, -0.008849557522123894, -0.008849557522123894, -0.017699115044247787, -3.814159292035398, -2.4601769911504405, 6.318584070796462, -0.5398230088495575, -0.13274336283185842, 0.2654867256637168, -0.024336283185840708, -0.004424778761061947, -0.00663716814159292, -0.008849557522123894, -0.00663716814159292, 0.9889380530973452, -3.2389380530973453, -6.079646017699112, 13.584070796460175, -0.5221238938053098, -0.12389380530973451, -3.044247787610619, -0.004424778761061947, -0.01327433628318584, 0.0, 0.0, -0.004424778761061947, -0.017699115044247787, -4.946902654867257, -2.9115044247787623, 12.053097345132741, -0.2831858407079646, 0.0, -3.9646017699115035, 0.0, -0.00663716814159292, 0.0, -0.0022123893805309734, 0.0, -0.00663716814159292, -6.716814159292035, -6.238938053097343, 19.690265486725664, -0.1504424778761062, 0.0, -8.168141592920357, -0.0022123893805309734, -0.0022123893805309734, -0.004424778761061947, 0.0, 0.0, -0.011061946902654867, -0.2929203539823009, 0.1929203539823009, -1.7130530973451323, 1.0256637168141594, -0.006858407079646017, 0.0, -0.04712389380530946, -1.4853982300884954, -3.544247787610619, -14.018362831858411, -0.07876106194690272, 0.2482300884955753, -1.0692477876106192, -1.2652654867256639, -0.019469026548672573, 0.005973451327433629, 0.21792035398230147, -0.875, -8.755530973451307, -15.258628318584062, 0.3205752212389381, 1.0059734513274334, -1.1922566371681382, -1.3603982300884958, -0.15398230088495574, 0.01327433628318584, 0.3723451327433628, 0.24712389380530964, -2.970796460176991, -2.7900442477876135, 0.15287610619469033, -0.3659292035398245, 0.9999999999999993, 1.1469026548672572, -0.11283185840707964, 0.0008849557522123895, -0.13274336283185806, 1.0438053097345126, 6.730752212389383, 14.09911504424778, -0.24469026548672573, -0.04601769911504433, -0.5495575221238949, 1.240929203539823, -0.02809734513274336, 0.0, -0.20265486725663712, -0.10154867256637184, 0.14977876106194632, -1.0794247787610605, 0.10110619469026548, 0.36371681415929213, -0.5621681415929203, -2.082079646017699, -0.05132743362831858, 0.019247787610619467, 0.21969026548672532, -0.7681415929203541, -5.076106194690259, -10.818362831858412, 0.04070796460176984, 1.4201327433628315, -0.33362831858407116, 0.15464601769911202, -0.31769911504424786, 0.008849557522123894, 0.7305309734513277, 1.2238938053097341, 0.8384955752212484, 21.18119469026548, -0.5639380530973453, 0.9143805309734514, -1.4778761061946906, 2.948893805309739, -0.18141592920353983, 0.01592920353982301, 0.4984513274336283, -1.2179203539822998, 4.482743362831858, -0.5457964601769838, -0.6681415929203542, 0.6535398230088495, -2.639601769911506, -0.6493362831858249, -0.032964601769911506, 0.013495575221238938, 0.5732300884955752, -2.494690265486722, -6.8309734513274325, -24.32278761061948, -0.10110619469026548, 0.297566371681416, -1.9393805309734482, -2.665486725663711, -0.025663716814159295, 0.0028761061946902654, -0.04778761061946879, -4.6358407079646025, -17.381194690265495, -59.52853982300884, -0.11460176991150428, 0.277212389380531, -2.769911504424776, -1.2924778761061946, -0.016814159292035398, 0.0, 0.05331858407079637, -2.6221238938053104, -11.6400442477876, -34.77146017699117, -0.09756637168141535, 0.27898230088495585, -1.7480088495575155, -0.6426991150442465, -0.003982300884955752, 0.0, 0.0851769911504423, -1.5223451327433626, -8.32610619469028, -21.17323008849559, 0.0
