5.528761061946902, -0.5508849557522124, -1.1880530973451187, 11.829646017699119, -0.9203539823008811, 46.84734513274336, 1.792035398230098, -56.949115044247776, 6.995575221238937, 24.323008849557525, 42.8490990990991, 48.913953488372094, 25.28381374722838, -13.592105263157896, -15.463414634146346, 10.371681415929203, -7.628318584070797, 19.079646017699115, -0.1415929203539823, 0.0, 5.9646017699115035, -0.0022123893805309734, -0.011061946902654867, -0.011061946902654867, -0.004424778761061947, -0.004424778761061947, -0.008849557522123894, -5.619469026548672, 25.663716814159294, -20.5929203539823, -0.4336283185840708, -0.1504424778761062, -3.6371681415929196, -0.017699115044247787, 0.9712389380530974, -0.0022123893805309734, -0.004424778761061947, -0.004424778761061947, -0.015486725663716814, -16.02654867256637, 54.017699115044245, -20.327433628318584, -2.3008849557522124, -0.3185840707964602, 9.486725663716815, -0.0022123893805309734, 0.9646017699115044, -0.0022123893805309734, -0.017699115044247787, -0.011061946902654867, -0.004424778761061947, 6.637168141592923, 4.672566371681416, -7.79646017699115, -2.8230088495575223, -0.07079646017699115, 24.76991150442478, -0.011061946902654867, -0.004424778761061947, -0.004424778761061947, -0.004424778761061947, -0.004424778761061947, -0.008849557522123894, -10.274336283185841, 4.424778761061944, 12.15929203539823, -0.8141592920353983, 0.0, -3.3008849557522133, 0.0, -0.017699115044247787, -0.0022123893805309734, -0.0022123893805309734, -0.00663716814159292, -0.0022123893805309734, -7.477876106194691, 25.5929203539823, -19.79646017699115, -0.7699115044247787, -0.22123893805309736, -5.876106194690266, -0.004424778761061947, -0.024336283185840708, 0.0, -0.0022123893805309734, -0.0022123893805309734, -0.0022123893805309734, -12.601769911504425, 8.15929203539823, 17.876106194690266, -3.9911504424778763, -0.11504424778761062, 1.2743362831858391, -0.00663716814159292, -0.015486725663716814, -0.008849557522123894, -0.008849557522123894, -0.011061946902654867, -0.022123893805309734, -6.327433628318584, 6.389380530973455, 8.389380530973455, -2.0353982300884956, -0.17699115044247787, 5.371681415929203, -0.008849557522123894, -0.008849557522123894, -0.01327433628318584, -0.008849557522123894, -0.008849557522123894, -0.017699115044247787, -3.814159292035398, 5.5398230088495595, 2.3185840707964616, -0.5398230088495575, -0.13274336283185842, 0.2654867256637168, -0.024336283185840708, -0.004424778761061947, -0.00663716814159292, -0.008849557522123894, -0.00663716814159292, -0.011061946902654867, -3.2389380530973453, 1.9203539823008882, 5.584070796460175, -0.5221238938053098, -0.12389380530973451, -3.044247787610619, -0.004424778761061947, -0.01327433628318584, 0.0, 0.0, -0.004424778761061947, -0.017699115044247787, 11.053097345132743, -2.9115044247787623, 4.053097345132741, -0.2831858407079646, 0.0, 8.035398230088497, 0.0, -0.00663716814159292, 0.0, -0.0022123893805309734, 0.0, -0.00663716814159292, 13.283185840707965, -6.238938053097343, 11.690265486725664, -0.1504424778761062, 0.0, 7.831858407079643, -0.0022123893805309734, -0.0022123893805309734, -0.004424778761061947, 0.0, 0.0, -0.011061946902654867, 0.2070796460176991, -0.20707964601769913, -0.7130530973451323, -0.37433628318584056, -0.006858407079646017, 0.0, -0.8471238938053094, -0.8853982300884955, -5.34424778761062, -11.618362831858413, 0.1212389380530973, 0.2482300884955753, -0.16924778761061887, 1.3347345132743362, -0.019469026548672573, 0.005973451327433629, -1.1820796460176985, -0.775, 11.044469026548693, 4.64137168141594, -0.0794247787610619, 1.0059734513274334, -1.392256637168138, 1.7396017699115043, -0.15398230088495574, 0.01327433628318584, -0.3276548672566373, 0.24712389380530964, 7.329203539823009, 8.909955752212387, -0.24712389380530966, -0.8659292035398245, -0.20000000000000062, 1.1469026548672572, -0.11283185840707964, 0.0008849557522123895, 0.16725663716814199, 0.6438053097345127, 0.6307522123893836, 5.599115044247782, 0.2553097345132743, 0.45398230088495567, -0.7495575221238946, -0.0590707964601771, -0.02809734513274336, 0.0, 0.0973451327433629, -0.5015486725663718, -1.050221238938053, -4.0794247787610605, -0.09889380530973453, 0.36371681415929213, -1.26216814159292, 1.3179203539823008, -0.05132743362831858, 0.019247787610619467, -0.08030973451327472, -0.2681415929203541, 3.8238938053097407, 1.2816371681415895, 0.2407079646017699, 1.4201327433628315, 0.8663716814159288, -2.4453539823008876, -0.31769911504424786, 0.008849557522123894, 0.3305309734513277, 1.9238938053097343, -4.261504424778753, 14.281194690265483, 0.13606194690265472, 0.9143805309734514, 0.32212389380530926, -3.6511061946902608, -0.18141592920353983, 0.01592920353982301, -0.0015486725663716929, 1.5820796460177005, -6.4172566371681405, 8.154203539823015, -0.5681415929203542, 0.6535398230088495, 2.660398230088493, -1.2493362831858246, -0.032964601769911506, 0.013495575221238938, -0.22676991150442485, -1.1946902654867215, 8.869026548672567, -4.3227876106194785, -0.4011061946902655, 0.297566371681416, 1.5606194690265518, -0.46548672566371163, -0.025663716814159295, 0.0028761061946902654, -0.14778761061946877, -1.9358407079646027, 4.018805309734505, -15.628539823008847, -0.31460176991150424, -0.322787610619469, 1.5300884955752245, -0.19247787610619405, -0.016814159292035398, 0.0, -0.14668141592920358, -1.5221238938053105, 1.7599557522124023, -12.07146017699117, -0.09756637168141535, -0.22101769911504415, 1.651991150442484, -0.24269911504424635, -0.003982300884955752, 0.0, -0.11482300884955765, -1.5223451327433626, 0.2738938053097222, -11.773230088495591, 0.0
21.528761061946902, -0.5508849557522124, -5.188053097345119, 1.829646017699119, 81.07964601769912, 36.84734513274336, 51.7920353982301, 94.05088495575222, 25.995575221238937, 28.323008849557525, -160.1509009009009, 71.0860465116279, -171.71618625277162, -79.40789473684211, -11.463414634146346, -5.628318584070796, 72.3716814159292, -20.920353982300885, -0.1415929203539823, 0.0, 29.964601769911503, -0.0022123893805309734, 0.9889380530973452, -0.011061946902654867, -0.004424778761061947, -0.004424778761061947, 0.9911504424778761, -5.619469026548672, 49.663716814159294, -20.5929203539823, -0.4336283185840708, -0.1504424778761062, 32.36283185840708, -0.017699115044247787, -0.028761061946902654, -0.0022123893805309734, -0.004424778761061947, -0.004424778761061947, -0.015486725663716814, -16.02654867256637, 42.017699115044245, 11.672566371681416, -2.3008849557522124, -0.3185840707964602, 21.486725663716815, -0.0022123893805309734, -0.035398230088495575, -0.0022123893805309734, -0.017699115044247787, 0.9889380530973452, -0.004424778761061947, 62.63716814159292, -19.327433628318584, -7.79646017699115, -2.8230088495575223, -0.07079646017699115, -31.23008849557522, -0.011061946902654867, -0.004424778761061947, -0.004424778761061947, -0.004424778761061947, -0.004424778761061947, -0.008849557522123894, -10.274336283185841, -3.575221238938056, 28.15929203539823, -0.8141592920353983, 0.0, -19.300884955752213, 0.0, -0.017699115044247787, -0.0022123893805309734, -0.0022123893805309734, -0.00663716814159292, -0.0022123893805309734, -7.477876106194691, 45.5929203539823, -19.79646017699115, -0.7699115044247787, -0.22123893805309736, 30.123893805309734, -0.004424778761061947, -0.024336283185840708, 0.0, -0.0022123893805309734, -0.0022123893805309734, -0.0022123893805309734, 111.39823008849558, -23.84070796460177, -42.123893805309734, -3.9911504424778763, -0.11504424778761062, -18.72566371681416, -0.00663716814159292, -0.015486725663716814, -0.008849557522123894, -0.008849557522123894, -0.011061946902654867, -0.022123893805309734, 113.67256637168141, -33.610619469026545, -43.610619469026545, -2.0353982300884956, -0.17699115044247787, -22.628318584070797, -0.008849557522123894, -0.008849557522123894, -0.01327433628318584, -0.008849557522123894, -0.008849557522123894, -0.017699115044247787, -3.814159292035398, -22.46017699115044, 70.31858407079646, -0.5398230088495575, -0.13274336283185842, -15.734513274336283, -0.024336283185840708, -0.004424778761061947, -0.00663716814159292, -0.008849557522123894, -0.00663716814159292, -0.011061946902654867, -3.2389380530973453, -18.079646017699112, 77.58407079646017, -0.5221238938053098, -0.12389380530973451, -11.044247787610619, -0.004424778761061947, -0.01327433628318584, 0.0, 0.0, -0.004424778761061947, -0.017699115044247787, -4.946902654867257, 49.08849557522124, 36.05309734513274, -0.2831858407079646, 0.0, 36.0353982300885, 0.0, 0.9933628318584071, 0.0, -0.0022123893805309734, 0.0, -0.00663716814159292, -6.716814159292035, 57.76106194690266, 31.690265486725664, -0.1504424778761062, 0.0, 31.831858407079643, -0.0022123893805309734, -0.0022123893805309734, -0.004424778761061947, 0.0, 0.0, -0.011061946902654867, 0.007079646017699087, 0.1929203539823009, -4.313053097345132, 1.0256637168141594, -0.006858407079646017, 0.0, -0.7471238938053094, -2.2853982300884956, -3.3442477876106196, -30.01836283185841, -1.4787610619469027, 0.2482300884955753, -2.169247787610619, 1.3347345132743362, -0.019469026548672573, 0.005973451327433629, -0.7820796460176984, -4.075, 9.044469026548693, -41.95862831858406, -1.3794247787610618, 1.0059734513274334, -0.19225663716813823, -0.06039823008849576, -0.15398230088495574, 0.01327433628318584, -0.3276548672566373, -1.9528761061946904, 8.329203539823009, -18.890044247787614, 0.6528761061946904, 1.9340707964601753, -0.9000000000000006, 1.1469026548672572, -0.11283185840707964, 0.0008849557522123895, 0.767256637168142, 3.1438053097345127, -2.169247787610617, 32.09911504424778, 1.2553097345132744, 0.45398230088495567, -3.049557522123895, 0.4409292035398229, -0.02809734513274336, 0.0, -0.10265486725663711, -0.8015486725663719, -6.550221238938054, -14.07942477876106, -1.6988938053097344, 0.36371681415929213, -0.7621681415929205, 1.3179203539823008, -0.05132743362831858, 0.019247787610619467, -0.6803097345132747, -2.368141592920354, 9.823893805309742, -16.21836283185841, 3.7407079646017705, -12.679867256637168, -1.6336283185840712, 6.554646017699112, -0.31769911504424786, 0.008849557522123894, -0.2694690265486723, 6.723893805309735, -68.66150442477876, 23.68119469026548, 4.636061946902654, -18.18561946902655, -3.9778761061946906, 9.048893805309739, -0.18141592920353983, 0.01592920353982301, -0.8015486725663717, 7.382079646017701, -96.61725663716814, 13.154203539823015, 7.331858407079645, 0.6535398230088495, -6.7396017699115065, -20.449336283185826, -0.032964601769911506, 0.013495575221238938, -1.7267699115044248, 10.705309734513278, -161.73097345132743, -1.0227876106194813, 2.9988938053097347, 0.297566371681416, -10.439380530973448, -4.965486725663712, -0.025663716814159295, 0.0028761061946902654, -0.5477876106194688, -1.2358407079646028, -80.18119469026549, -86.02853982300886, -1.3146017699115045, 0.277212389380531, 0.23008849557522382, 0.10752212389380578, -0.016814159292035398, 0.0, -0.5466814159292036, -4.7221238938053105, 24.459955752212398, -27.77146017699117, -1.6975663716814153, 0.27898230088495585, 1.0519911504424844, -1.1426991150442465, -0.003982300884955752, 0.0, -0.5148230088495577, -4.522345132743363, 27.373893805309724, -26.97323008849559, 0.0
15.528761061946902, -0.5508849557522124, 3.8119469026548813, 3.829646017699119, 13.079646017699119, -20.152654867256643, 33.7920353982301, -13.949115044247776, -7.004424778761063, 38.323008849557525, 34.8490990990991, 19.086046511627906, 35.28381374722838, -13.592105263157896, -4.463414634146346, 14.371681415929203, -15.628318584070797, 27.079646017699115, -0.1415929203539823, 0.0, 5.9646017699115035, -0.0022123893805309734, -0.011061946902654867, -0.011061946902654867, -0.004424778761061947, -0.004424778761061947, -0.008849557522123894, -5.619469026548672, -2.3362831858407063, -20.5929203539823, -0.4336283185840708, -0.1504424778761062, -3.6371681415929196, -0.017699115044247787, -0.028761061946902654, -0.0022123893805309734, -0.004424778761061947, -0.004424778761061947, -0.015486725663716814, -16.02654867256637, 62.017699115044245, -20.327433628318584, -2.3008849557522124, -0.3185840707964602, 5.486725663716815, -0.0022123893805309734, -0.035398230088495575, -0.0022123893805309734, -0.017699115044247787, -0.011061946902654867, -0.004424778761061947, -5.362831858407077, 16.672566371681416, -7.79646017699115, -2.8230088495575223, -0.07079646017699115, 16.76991150442478, -0.011061946902654867, -0.004424778761061947, -0.004424778761061947, -0.004424778761061947, -0.004424778761061947, -0.008849557522123894, 17.72566371681416, -19.575221238938056, 20.15929203539823, -0.8141592920353983, 0.0, 12.699115044247787, 0.0, -0.017699115044247787, -0.0022123893805309734, -0.0022123893805309734, -0.00663716814159292, -0.0022123893805309734, -7.477876106194691, 33.5929203539823, -19.79646017699115, -0.7699115044247787, -0.22123893805309736, -1.8761061946902657, -0.004424778761061947, -0.024336283185840708, 0.0, -0.0022123893805309734, -0.0022123893805309734, -0.0022123893805309734, -12.601769911504425, 0.15929203539823078, 21.876106194690266, -3.9911504424778763, -0.11504424778761062, -6.725663716814161, -0.00663716814159292, -0.015486725663716814, -0.008849557522123894, -0.008849557522123894, -0.011061946902654867, -0.022123893805309734, 13.672566371681416, -17.610619469026545, 12.389380530973455, -2.0353982300884956, -0.17699115044247787, 5.371681415929203, -0.008849557522123894, -0.008849557522123894, -0.01327433628318584, -0.008849557522123894, -0.008849557522123894, -0.017699115044247787, 20.1858407079646, -14.46017699115044, 10.318584070796462, -0.5398230088495575, -0.13274336283185842, 12.265486725663717, -0.024336283185840708, -0.004424778761061947, -0.00663716814159292, -0.008849557522123894, -0.00663716814159292, -0.011061946902654867, 20.761061946902654, -14.079646017699112, 13.584070796460175, -0.5221238938053098, -0.12389380530973451, 8.955752212389381, -0.004424778761061947, -0.01327433628318584, 0.0, 0.0, -0.004424778761061947, -0.017699115044247787, 15.053097345132743, -10.911504424778762, 16.05309734513274, -0.2831858407079646, 0.0, 8.035398230088497, 0.0, -0.00663716814159292, 0.0, -0.0022123893805309734, 0.0, -0.00663716814159292, 13.283185840707965, -10.238938053097343, 23.690265486725664, -0.1504424778761062, 0.0, 7.831858407079643, -0.0022123893805309734, -0.0022123893805309734, -0.004424778761061947, 0.0, 0.0, -0.011061946902654867, -0.19292035398230092, -0.3070796460176991, -0.21305309734513234, -0.8743362831858406, -0.006858407079646017, 0.0, 0.1528761061946906, -0.5853982300884955, -8.44424778761062, -12.418362831858412, -0.6787610619469028, 0.2482300884955753, 0.23075221238938148, 1.3347345132743362, -0.019469026548672573, 0.005973451327433629, 0.7179203539823015, 0.02499999999999991, 2.2444690265486926, 2.241371681415938, -0.0794247787610619, 1.0059734513274334, -1.892256637168138, 1.7396017699115043, -0.15398230088495574, 0.01327433628318584, 0.5723451327433627, 0.7471238938053097, 5.62920353982301, 11.009955752212388, -0.04712389380530965, -0.46592920353982503, 0.39999999999999947, 1.1469026548672572, -0.11283185840707964, 0.0008849557522123895, -0.23274336283185804, 0.14380530973451267, 6.530752212389384, 7.99911504424778, -0.3446902654867257, -0.1460176991150443, -1.9495575221238948, -0.659070796460177, -0.02809734513274336, 0.0, -0.5026548672566371, -0.5015486725663718, -8.250221238938053, -11.37942477876106, 0.4011061946902655, 0.36371681415929213, -0.46216814159291975, 1.3179203539823008, -0.05132743362831858, 0.019247787610619467, 0.6196902654867253, 0.1318584070796459, 8.62389380530974, 9.181637168141588, 0.04070796460176984, 1.4201327433628315, -1.0336283185840713, -1.9453539823008876, -0.31769911504424786, 0.008849557522123894, 0.2305309734513277, -1.5761061946902657, -7.761504424778753, -24.018805309734518, -0.8639380530973454, 0.11438053097345136, -1.9778761061946906, -3.851106194690262, -0.18141592920353983, 0.01592920353982301, -0.2015486725663717, -5.3179203539823, -17.31725663716814, -64.94579646017698, -1.6681415929203542, -1.8464601769911506, 3.860398230088494, -8.449336283185826, -0.032964601769911506, 0.013495575221238938, -0.4267699115044249, -9.094690265486722, -26.430973451327436, -108.72278761061948, -1.4011061946902654, -1.402433628318584, 4.860619469026551, -6.265486725663712, -0.025663716814159295, 0.0028761061946902654, 0.35221238938053123, -5.6358407079646025, -22.581194690265495, -70.62853982300885, -0.6146017699115043, -0.5227876106194691, 1.3300884955752235, -2.0924778761061944, -0.016814159292035398, 0.0, 0.25331858407079644, -2.0221238938053103, -11.7400442477876, -29.17146017699117, -0.09756637168141535, -0.22101769911504415, -0.048008849557515276, -0.5426991150442464, -0.003982300884955752, 0.0, 0.28517699115044237, -0.3223451327433625, -7.0261061946902785, -10.17323008849559, 0.0
-29.471238938053098, 0.4491150442477876, -6.188053097345119, -14.170353982300881, -3.920353982300881, -18.152654867256643, -44.2079646017699, -26.949115044247776, -3.004424778761063, 38.323008849557525, -7.150900900900901, 29.086046511627906, 13.283813747228379, -13.592105263157896, 18.536585365853654, -5.628318584070796, -11.628318584070797, 27.079646017699115, -0.1415929203539823, 0.0, -10.035398230088497, -0.0022123893805309734, -0.011061946902654867, -0.011061946902654867, -0.004424778761061947, -0.004424778761061947, -0.008849557522123894, -5.619469026548672, -10.336283185840706, 19.4070796460177, -0.4336283185840708, -0.1504424778761062, -11.63716814159292, -0.017699115044247787, -0.028761061946902654, -0.0022123893805309734, -0.004424778761061947, -0.004424778761061947, -0.015486725663716814, 3.9734513274336294, 2.0176991150442447, -20.327433628318584, -2.3008849557522124, -0.3185840707964602, 5.486725663716815, -0.0022123893805309734, -0.035398230088495575, -0.0022123893805309734, -0.017699115044247787, -0.011061946902654867, -0.004424778761061947, -5.362831858407077, 24.672566371681416, -7.79646017699115, -2.8230088495575223, -0.07079646017699115, 16.76991150442478, -0.011061946902654867, -0.004424778761061947, -0.004424778761061947, -0.004424778761061947, -0.004424778761061947, -0.008849557522123894, -10.274336283185841, -11.575221238938056, 16.15929203539823, -0.8141592920353983, 0.0, -11.300884955752213, 0.0, -0.017699115044247787, -0.0022123893805309734, -0.0022123893805309734, -0.00663716814159292, -0.0022123893805309734, 8.52212389380531, -10.4070796460177, 16.20353982300885, -0.7699115044247787, -0.22123893805309736, 6.123893805309734, -0.004424778761061947, -0.024336283185840708, 0.0, -0.0022123893805309734, -0.0022123893805309734, -0.0022123893805309734, -12.601769911504425, 8.15929203539823, -14.123893805309734, 36.008849557522126, -0.11504424778761062, 1.2743362831858391, -0.00663716814159292, -0.015486725663716814, -0.008849557522123894, -0.008849557522123894, -0.011061946902654867, -0.022123893805309734, -6.327433628318584, 6.389380530973455, 8.389380530973455, -2.0353982300884956, -0.17699115044247787, 1.3716814159292028, -0.008849557522123894, -0.008849557522123894, -0.01327433628318584, -0.008849557522123894, -0.008849557522123894, -0.017699115044247787, -3.814159292035398, 9.53982300884956, 2.3185840707964616, -0.5398230088495575, -0.13274336283185842, 8.265486725663717, -0.024336283185840708, -0.004424778761061947, -0.00663716814159292, -0.008849557522123894, -0.00663716814159292, -0.011061946902654867, -3.2389380530973453, -2.079646017699112, 1.5840707964601748, -0.5221238938053098, -0.12389380530973451, -3.044247787610619, -0.004424778761061947, -0.01327433628318584, 0.0, 0.0, -0.004424778761061947, -0.017699115044247787, 15.053097345132743, -6.911504424778762, 0.053097345132741225, -0.2831858407079646, 0.0, 8.035398230088497, 0.0, -0.00663716814159292, 0.0, -0.0022123893805309734, 0.0, -0.00663716814159292, 17.283185840707965, -14.238938053097343, 11.690265486725664, -0.1504424778761062, 0.0, 7.831858407079643, -0.0022123893805309734, -0.0022123893805309734, -0.004424778761061947, 0.0, 0.0, -0.011061946902654867, 0.2070796460176991, 0.1929203539823009, -1.2130530973451323, -1.9743362831858406, -0.006858407079646017, 0.0, -0.34712389380530945, 0.6146017699115046, -11.44424778761062, -7.618362831858413, -0.27876106194690276, 0.2482300884955753, 1.3307522123893811, -1.1652654867256638, -0.019469026548672573, 0.005973451327433629, 0.5179203539823015, 0.02499999999999991, -3.2555309734513074, -5.758628318584062, -0.5794247787610619, 0.2059734513274334, 0.9077433628318623, 1.7396017699115043, -0.15398230088495574, 0.01327433628318584, 0.6723451327433628, -0.15287610619469033, 6.12920353982301, 4.509955752212386, 0.05287610619469035, -2.265929203539825, 1.4999999999999993, 1.1469026548672572, -0.11283185840707964, 0.0008849557522123895, -0.23274336283185804, -0.35619469026548733, 5.830752212389383, 3.4991150442477803, 0.2553097345132743, 0.45398230088495567, -1.0495575221238949, -0.9590707964601772, -0.02809734513274336, 0.0, -0.5026548672566371, 0.7984513274336282, -5.550221238938053, 0.02057522123893918, -0.49889380530973454, -0.03628318584070789, 2.13783185840708, -0.18207964601769921, -0.05132743362831858, 0.019247787610619467, 0.8196902654867253, -0.16814159292035413, 1.223893805309741, -0.31836283185841197, -0.5592920353982301, 1.4201327433628315, 0.2663716814159287, 1.2546460176991125, 0.6823008849557521, 0.008849557522123894, 0.5305309734513277, -1.4761061946902658, 16.33849557522125, 4.9811946902654824, -0.06393805309734535, 0.9143805309734514, 2.42212389380531, 1.5488938053097385, -0.18141592920353983, 0.01592920353982301, 0.3984513274336283, -2.8179203539823, 11.282743362831859, -18.445796460176982, -0.7681415929203542, 0.6535398230088495, -0.039601769911506324, 2.350663716814176, -0.032964601769911506, 0.013495575221238938, 0.47323008849557513, -3.2946902654867216, 11.969026548672566, -24.92278761061948, -0.5011061946902655, 0.297566371681416, -2.439380530973448, 2.834513274336288, -0.025663716814159295, 0.0028761061946902654, 0.35221238938053123, -1.5358407079646028, 1.3188053097345058, -15.928539823008848, -0.31460176991150424, -0.222787610619469, -2.369911504424776, 1.0075221238938057, -0.016814159292035398, 0.0, 0.4533185840707964, -0.42212389380531046, -5.540044247787598, -12.27146017699117, -0.2975663716814153, -0.5210176991150441, -0.7480088495575146, -0.34269911504424644, -0.003982300884955752, 0.0, 0.38517699115044235, 0.0776548672566375, -8.926106194690279, -11.073230088495592, 0.0
7.528761061946902, -0.5508849557522124, 5.811946902654881, 26.82964601769912, 49.07964601769912, 7.8473451327433565, 18.792035398230098, 15.050884955752224, 11.995575221238937, 62.323008849557525, -2.1509009009009006, 21.086046511627906, 29.28381374722838, 36.5921052631579, 0.5365853658536537, -5.628318584070796, -11.628318584070797, 59.07964601769912, -0.1415929203539823, 0.0, -6.0353982300884965, -0.0022123893805309734, -0.011061946902654867, -0.011061946902654867, -0.004424778761061947, -0.004424778761061947, -0.008849557522123894, 14.380530973451329, 1.6637168141592937, 31.4070796460177, -0.4336283185840708, -0.1504424778761062, 8.36283185840708, -0.017699115044247787, -0.028761061946902654, -0.0022123893805309734, -0.004424778761061947, -0.004424778761061947, -0.015486725663716814, 11.97345132743363, 74.01769911504425, -20.327433628318584, -2.3008849557522124, -0.3185840707964602, 21.486725663716815, -0.0022123893805309734, -0.035398230088495575, -0.0022123893805309734, -0.017699115044247787, -0.011061946902654867, -0.004424778761061947, 6.637168141592923, 44.67256637168141, -7.79646017699115, -2.8230088495575223, -0.07079646017699115, 56.76991150442478, -0.011061946902654867, -0.004424778761061947, -0.004424778761061947, -0.004424778761061947, -0.004424778761061947, -0.008849557522123894, -10.274336283185841, -7.575221238938056, 72.15929203539824, -0.8141592920353983, 0.0, -3.3008849557522133, 0.0, -0.017699115044247787, -0.0022123893805309734, -0.0022123893805309734, -0.00663716814159292, -0.0022123893805309734, -7.477876106194691, 77.5929203539823, -19.79646017699115, -0.7699115044247787, -0.22123893805309736, -5.876106194690266, -0.004424778761061947, 0.9756637168141593, 0.0, -0.0022123893805309734, -0.0022123893805309734, -0.0022123893805309734, -12.601769911504425, 0.15929203539823078, -6.123893805309734, 72.00884955752213, -0.11504424778761062, 81.27433628318585, -0.00663716814159292, -0.015486725663716814, -0.008849557522123894, -0.008849557522123894, -0.011061946902654867, -0.022123893805309734, -6.327433628318584, 6.389380530973455, -15.610619469026545, 57.9646017699115, -0.17699115044247787, 73.3716814159292, -0.008849557522123894, -0.008849557522123894, -0.01327433628318584, -0.008849557522123894, -0.008849557522123894, -0.017699115044247787, -3.814159292035398, 5.5398230088495595, -21.68141592920354, 55.46017699115044, 23.86725663716814, 4.265486725663717, -0.024336283185840708, -0.004424778761061947, -0.00663716814159292, -0.008849557522123894, -0.00663716814159292, -0.011061946902654867, -3.2389380530973453, -2.079646017699112, 45.584070796460175, -0.5221238938053098, -0.12389380530973451, -3.044247787610619, -0.004424778761061947, -0.01327433628318584, 0.0, 0.0, -0.004424778761061947, -0.017699115044247787, -4.946902654867257, -2.9115044247787623, 36.05309734513274, -0.2831858407079646, 0.0, -3.9646017699115035, 0.0, -0.00663716814159292, 0.0, -0.0022123893805309734, 0.0, -0.00663716814159292, -6.716814159292035, -6.238938053097343, 43.690265486725664, -0.1504424778761062, 0.0, -8.168141592920357, -0.0022123893805309734, -0.0022123893805309734, -0.004424778761061947, 0.0, 0.0, -0.011061946902654867, 1.2070796460176991, 0.1929203539823009, -1.5130530973451322, -1.7743362831858405, -0.006858407079646017, 0.0, -0.34712389380530945, 1.5146017699115046, -16.04424778761062, -1.0183628318584113, 0.9212389380530973, -0.15176991150442473, -0.7692477876106185, 0.03473451327433619, -0.019469026548672573, 0.005973451327433629, -0.2820796460176985, 1.3250000000000002, -2.7555309734513074, 10.941371681415937, -0.2794247787610619, 0.40597345132743345, 0.9077433628318623, 1.7396017699115043, -0.15398230088495574, 0.01327433628318584, 0.07234513274336274, -0.15287610619469033, 22.02920353982301, 20.609955752212386, -1.1471238938053097, -0.06592920353982468, 0.8999999999999995, 1.1469026548672572, -0.11283185840707964, 0.0008849557522123895, 0.26725663716814196, -1.3561946902654873, 7.630752212389384, -5.00088495575222, 0.6553097345132743, 0.45398230088495567, -1.7495575221238948, -1.4590707964601772, -0.02809734513274336, 0.0, -0.30265486725663715, 0.6984513274336281, -14.850221238938055, -8.47942477876106, 0.4011061946902655, 0.36371681415929213, 0.037831858407080254, 1.3179203539823008, -0.05132743362831858, 0.019247787610619467, -0.08030973451327472, 0.5318584070796458, 21.52389380530974, 26.68163716814159, -1.4592920353982302, 1.4201327433628315, -0.9336283185840712, 2.7546460176991125, 6.182300884955752, 0.008849557522123894, 0.6305309734513277, -3.4761061946902654, 37.438495575221246, 2.281194690265483, -1.8639380530973453, 0.9143805309734514, -1.7778761061946904, 4.948893805309739, 7.21858407079646, 0.01592920353982301, 0.4984513274336283, -5.0179203539823, 38.88274336283186, -12.845796460176983, -0.7681415929203542, 0.6535398230088495, -2.2396017699115065, 6.050663716814176, 3.9670353982300885, -0.48650442477876105, 0.17323008849557517, -3.594690265486722, 28.669026548672566, -9.12278761061948, 0.6988938053097344, 0.297566371681416, -1.8393805309734486, 1.3345132743362882, -0.025663716814159295, 0.0028761061946902654, -0.04778761061946879, -0.33584070796460264, -13.081194690265495, -12.628539823008847, 1.585398230088496, 0.277212389380531, -0.2699115044247762, 0.20752212389380587, -0.016814159292035398, 0.0, -0.14668141592920358, 1.6778761061946894, -6.340044247787599, 15.328539823008832, 1.2024336283185848, 0.27898230088495585, 0.4519911504424847, -0.9426991150442463, -0.003982300884955752, 0.0, -0.21482300884955768, 2.1776548672566376, -7.0261061946902785, 19.52676991150441, 0.0
-31.471238938053098, 0.4491150442477876, 3.8119469026548813, -15.170353982300881, 16.07964601769912, -6.1526548672566435, -5.207964601769902, -26.949115044247776, -8.004424778761063, -71.67699115044248, 12.8490990990991, 21.086046511627906, -36.71618625277162, -13.592105263157896, 5.536585365853654, 14.371681415929203, -7.628318584070797, 31.079646017699115, -0.1415929203539823, 0.0, 5.9646017699115035, -0.0022123893805309734, -0.011061946902654867, -0.011061946902654867, -0.004424778761061947, -0.004424778761061947, -0.008849557522123894, -5.619469026548672, -14.336283185840706, 27.4070796460177, -0.4336283185840708, -0.1504424778761062, -7.63716814159292, -0.017699115044247787, -0.028761061946902654, -0.0022123893805309734, -0.004424778761061947, -0.004424778761061947, -0.015486725663716814, -16.02654867256637, -17.982300884955755, 55.67256637168141, -2.3008849557522124, -0.3185840707964602, -18.513274336283185, -0.0022123893805309734, -0.035398230088495575, -0.0022123893805309734, -0.017699115044247787, -0.011061946902654867, -0.004424778761061947, -5.362831858407077, 28.672566371681416, -7.79646017699115, -2.8230088495575223, -0.07079646017699115, 16.76991150442478, -0.011061946902654867, -0.004424778761061947, -0.004424778761061947, -0.004424778761061947, -0.004424778761061947, -0.008849557522123894, 13.725663716814159, 28.424778761061944, -19.84070796460177, -0.8141592920353983, 0.0, 24.699115044247787, 0.0, -0.017699115044247787, -0.0022123893805309734, -0.0022123893805309734, -0.00663716814159292, -0.0022123893805309734, -7.477876106194691, -2.4070796460176993, 32.20353982300885, -0.7699115044247787, -0.22123893805309736, 6.123893805309734, -0.004424778761061947, -0.024336283185840708, 0.0, -0.0022123893805309734, -0.0022123893805309734, -0.0022123893805309734, -12.601769911504425, 8.15929203539823, 9.876106194690266, 20.008849557522122, -0.11504424778761062, 1.2743362831858391, -0.00663716814159292, -0.015486725663716814, -0.008849557522123894, -0.008849557522123894, -0.011061946902654867, -0.022123893805309734, -6.327433628318584, 2.3893805309734546, 4.389380530973455, 21.964601769911503, -0.17699115044247787, 1.3716814159292028, -0.008849557522123894, -0.008849557522123894, -0.01327433628318584, -0.008849557522123894, -0.008849557522123894, -0.017699115044247787, -3.814159292035398, -2.4601769911504405, 10.318584070796462, -0.5398230088495575, -0.13274336283185842, 0.2654867256637168, -0.024336283185840708, -0.004424778761061947, -0.00663716814159292, -0.008849557522123894, -0.00663716814159292, -0.011061946902654867, -3.2389380530973453, -2.079646017699112, 9.584070796460175, -0.5221238938053098, -0.12389380530973451, 0.9557522123893811, -0.004424778761061947, -0.01327433628318584, 0.0, 0.0, -0.004424778761061947, -0.017699115044247787, 11.053097345132743, -10.911504424778762, 16.05309734513274, -0.2831858407079646, 0.0, 4.0353982300884965, 0.0, -0.00663716814159292, 0.0, -0.0022123893805309734, 0.0, -0.00663716814159292, 9.283185840707965, -10.238938053097343, 27.690265486725664, -0.1504424778761062, 0.0, 3.8318584070796433, -0.0022123893805309734, -0.0022123893805309734, -0.004424778761061947, 0.0, 0.0, -0.011061946902654867, 0.2070796460176991, -0.4070796460176991, 0.3869469026548682, 0.4256637168141594, -0.006858407079646017, 0.0, -0.14712389380530944, 0.5146017699115045, -1.9442477876106192, 1.2816371681415895, 0.2212389380530973, 0.2482300884955753, -0.7692477876106185, -4.665265486725664, -0.019469026548672573, 0.005973451327433629, 0.21792035398230147, 0.9249999999999998, -18.555530973451308, -12.958628318584061, 0.02057522123893811, 1.0059734513274334, -2.6922566371681382, -4.860398230088496, -0.15398230088495574, 0.01327433628318584, 0.3723451327433628, 0.4471238938053097, -26.770796460176992, -24.590044247787613, -0.24712389380530966, -1.0659292035398247, 2.1999999999999993, 1.1469026548672572, -0.11283185840707964, 0.0008849557522123895, 0.06725663716814201, -0.8561946902654873, 10.430752212389383, 4.69911504424778, -0.04469026548672572, -0.6460176991150444, 0.35044247787610505, 1.240929203539823, -0.02809734513274336, 0.0, -0.40265486725663713, 0.19845132743362814, 6.849778761061947, 8.420575221238938, 0.6011061946902655, 0.36371681415929213, -1.5621681415929203, -4.6820796460177, -0.05132743362831858, 0.019247787610619467, 0.3196902654867253, 0.6318584070796459, -17.47610619469026, -14.118362831858411, -0.4592920353982301, 1.4201327433628315, 1.066371681415929, -1.9453539823008876, 0.3823008849557521, 0.008849557522123894, -0.1694690265486723, -1.7761061946902659, 1.738495575221247, -12.918805309734518, -0.6639380530973453, 0.9143805309734514, 2.42212389380531, -3.4511061946902615, 1.0185840707964602, 0.01592920353982301, 0.09845132743362832, -3.1179203539822997, 0.8827433628318566, -30.045796460176984, 0.1318584070796458, 0.6535398230088495, -0.33960176991150615, -4.649336283185825, -0.032964601769911506, 0.013495575221238938, 0.17323008849557517, -1.9946902654867218, -14.730973451327433, -41.42278761061948, 0.7988938053097345, 0.297566371681416, -1.6393805309734493, -6.365486725663712, -0.025663716814159295, 0.0028761061946902654, 0.05221238938053119, -0.6358407079646029, -22.481194690265497, -32.828539823008846, 0.48539823008849575, -0.12278761061946902, -0.16991150442477654, -4.5924778761061935, -0.016814159292035398, 0.0, 0.05331858407079637, 0.6778761061946894, -20.9400442477876, -19.17146017699117, 0.40243362831858465, -0.32101769911504413, -0.348008849557516, -2.4426991150442463, -0.003982300884955752, 0.0, -0.014823008849557673, 0.8776548672566375, -13.22610619469028, -7.873230088495589, 0.0
-10.471238938053098, -0.5508849557522124, 1.8119469026548813, 6.829646017699119, 3.079646017699119, 38.84734513274336, 19.792035398230098, 5.050884955752224, -7.004424778761063, -35.676991150442475, -24.1509009009009, -57.913953488372094, -28.71618625277162, -13.592105263157896, -14.463414634146346, -5.628318584070796, -7.628318584070797, 19.079646017699115, -0.1415929203539823, 0.0, -6.0353982300884965, -0.0022123893805309734, -0.011061946902654867, -0.011061946902654867, -0.004424778761061947, -0.004424778761061947, -0.008849557522123894, -5.619469026548672, -10.336283185840706, 23.4070796460177, -0.4336283185840708, -0.1504424778761062, 0.36283185840708043, -0.017699115044247787, -0.028761061946902654, -0.0022123893805309734, -0.004424778761061947, -0.004424778761061947, -0.015486725663716814, -16.02654867256637, -17.982300884955755, 19.672566371681416, -2.3008849557522124, -0.3185840707964602, -14.513274336283185, -0.0022123893805309734, -0.035398230088495575, -0.0022123893805309734, -0.017699115044247787, -0.011061946902654867, -0.004424778761061947, -5.362831858407077, 24.672566371681416, -7.79646017699115, -2.8230088495575223, -0.07079646017699115, 20.76991150442478, -0.011061946902654867, -0.004424778761061947, -0.004424778761061947, -0.004424778761061947, -0.004424778761061947, -0.008849557522123894, -10.274336283185841, 20.424778761061944, -19.84070796460177, -0.8141592920353983, 0.0, -7.300884955752213, 0.0, 0.9823008849557522, -0.0022123893805309734, -0.0022123893805309734, -0.00663716814159292, -0.0022123893805309734, -7.477876106194691, -6.407079646017699, 24.20353982300885, -0.7699115044247787, -0.22123893805309736, 2.1238938053097343, -0.004424778761061947, -0.024336283185840708, 0.0, -0.0022123893805309734, -0.0022123893805309734, -0.0022123893805309734, -12.601769911504425, 8.15929203539823, -2.1238938053097343, 32.008849557522126, -0.11504424778761062, 65.27433628318585, -0.00663716814159292, -0.015486725663716814, -0.008849557522123894, -0.008849557522123894, -0.011061946902654867, -0.022123893805309734, -6.327433628318584, -1.6106194690265454, 8.389380530973455, -2.0353982300884956, -0.17699115044247787, -2.628318584070797, -0.008849557522123894, -0.008849557522123894, -0.01327433628318584, -0.008849557522123894, -0.008849557522123894, -0.017699115044247787, -3.814159292035398, 1.5398230088495595, 6.318584070796462, -0.5398230088495575, -0.13274336283185842, 0.2654867256637168, -0.024336283185840708, -0.004424778761061947, -0.00663716814159292, -0.008849557522123894, -0.00663716814159292, -0.011061946902654867, -3.2389380530973453, -2.079646017699112, 1.5840707964601748, -0.5221238938053098, -0.12389380530973451, -3.044247787610619, -0.004424778761061947, -0.01327433628318584, 0.0, 0.0, -0.004424778761061947, -0.017699115044247787, -4.946902654867257, -2.9115044247787623, 4.053097345132741, -0.2831858407079646, 0.0, -7.9646017699115035, 0.0, -0.00663716814159292, 0.0, -0.0022123893805309734, 0.0, -0.00663716814159292, -6.716814159292035, -10.238938053097343, 23.690265486725664, -0.1504424778761062, 0.0, -8.168141592920357, -0.0022123893805309734, -0.0022123893805309734, -0.004424778761061947, 0.0, 0.0, -0.011061946902654867, 0.3070796460176991, 0.1929203539823009, -0.9130530973451325, -1.1743362831858408, -0.006858407079646017, 0.0, -0.14712389380530944, 1.7146017699115048, -7.04424778761062, 8.581637168141587, 0.8212389380530972, 0.2482300884955753, -1.0692477876106192, -2.965265486725664, -0.019469026548672573, 0.005973451327433629, -0.7820796460176984, 0.5249999999999999, -12.955530973451307, -7.058628318584063, 0.02057522123893811, 1.0059734513274334, -2.492256637168138, -0.5603982300884955, -0.15398230088495574, 0.01327433628318584, -0.8276548672566373, -1.1528761061946904, -6.070796460176991, -15.690044247787613, -0.6471238938053097, -0.3659292035398245, 2.1999999999999993, 1.1469026548672572, -0.11283185840707964, 0.0008849557522123895, 0.26725663716814196, -1.0561946902654875, 11.230752212389383, 1.9991150442477803, 0.055309734513274283, 0.45398230088495567, -1.3495575221238947, 1.240929203539823, -0.02809734513274336, 0.0, 0.4973451327433629, 1.398451327433628, 1.2497787610619469, 12.620575221238937, 0.5011061946902655, 0.36371681415929213, -1.36216814159292, -1.982079646017699, -0.05132743362831858, 0.019247787610619467, -0.5803097345132747, -0.46814159292035407, -9.276106194690259, -12.418362831858412, 0.04070796460176984, 1.4201327433628315, 0.06637168141592875, 0.3546460176991122, 1.582300884955752, 0.008849557522123894, -0.2694690265486723, -0.8761061946902657, 12.438495575221246, 1.7811946902654832, 0.23606194690265458, 0.9143805309734514, -0.9778761061946906, -0.8511061946902618, -0.18141592920353983, 0.01592920353982301, 0.7984513274336283, 2.3820796460177003, -2.9172566371681405, 24.85420353982302, 0.5318584070796458, 0.6535398230088495, -1.0396017699115063, -2.849336283185824, -0.032964601769911506, 0.013495575221238938, 0.7732300884955752, 2.905309734513278, -7.530973451327434, 27.877212389380517, 0.39889380530973456, 0.297566371681416, -0.03938053097344785, -1.7654867256637123, -0.025663716814159295, 0.0028761061946902654, 0.15221238938053117, 1.264159292035397, -3.481194690265495, 7.471460176991151, 0.3853982300884957, 0.277212389380531, -1.5699115044247751, -0.49247787610619387, -0.016814159292035398, 0.0, -0.04668141592920361, 1.2778761061946895, -5.340044247787599, 6.628539823008829, 0.30243362831858467, 0.27898230088495585, -2.148008849557515, -0.24269911504424635, -0.003982300884955752, 0.0, -0.11482300884955765, 0.8776548672566375, -9.926106194690279, -1.1732300884955897, 0.0
-35.4712389380531, 0.4491150442477876, -42.18805309734512, -43.17035398230088, 1.079646017699119, 5.8473451327433565, -18.207964601769902, 39.050884955752224, 7.995575221238937, 46.323008849557525, 50.8490990990991, 7.086046511627906, 50.28381374722838, -13.592105263157896, 16.536585365853654, -5.628318584070796, -7.628318584070797, 11.079646017699115, -0.1415929203539823, 0.0, -2.0353982300884965, -0.0022123893805309734, -0.011061946902654867, -0.011061946902654867, -0.004424778761061947, -0.004424778761061947, -0.008849557522123894, -5.619469026548672, -6.336283185840706, 11.4070796460177, -0.4336283185840708, -0.1504424778761062, 0.36283185840708043, -0.017699115044247787, -0.028761061946902654, -0.0022123893805309734, -0.004424778761061947, -0.004424778761061947, -0.015486725663716814, -16.02654867256637, -1.9823008849557553, 23.672566371681416, -2.3008849557522124, -0.3185840707964602, -6.513274336283185, -0.0022123893805309734, -0.035398230088495575, -0.0022123893805309734, -0.017699115044247787, -0.011061946902654867, -0.004424778761061947, -1.3628318584070769, 28.672566371681416, -7.79646017699115, -2.8230088495575223, -0.07079646017699115, 20.76991150442478, -0.011061946902654867, -0.004424778761061947, -0.004424778761061947, -0.004424778761061947, -0.004424778761061947, -0.008849557522123894, -10.274336283185841, -23.575221238938056, 12.15929203539823, 39.1858407079646, 0.0, 28.699115044247787, 0.0, -0.017699115044247787, -0.0022123893805309734, -0.0022123893805309734, -0.00663716814159292, -0.0022123893805309734, -7.477876106194691, -10.4070796460177, 28.20353982300885, -0.7699115044247787, -0.22123893805309736, -1.8761061946902657, -0.004424778761061947, -0.024336283185840708, 0.0, -0.0022123893805309734, -0.0022123893805309734, -0.0022123893805309734, -12.601769911504425, 40.15929203539823, -6.123893805309734, -3.9911504424778763, -0.11504424778761062, 33.27433628318584, -0.00663716814159292, 0.9845132743362832, -0.008849557522123894, -0.008849557522123894, -0.011061946902654867, -0.022123893805309734, -6.327433628318584, 6.389380530973455, 8.389380530973455, 5.964601769911504, -0.17699115044247787, 1.3716814159292028, -0.008849557522123894, -0.008849557522123894, -0.01327433628318584, -0.008849557522123894, -0.008849557522123894, 0.9823008849557522, -3.814159292035398, -2.4601769911504405, 2.3185840707964616, -0.5398230088495575, -0.13274336283185842, 0.2654867256637168, -0.024336283185840708, -0.004424778761061947, -0.00663716814159292, -0.008849557522123894, -0.00663716814159292, -0.011061946902654867, -3.2389380530973453, -2.079646017699112, 13.584070796460175, -0.5221238938053098, -0.12389380530973451, -3.044247787610619, -0.004424778761061947, -0.01327433628318584, 0.0, 0.0, -0.004424778761061947, -0.017699115044247787, -4.946902654867257, -10.911504424778762, 16.05309734513274, -0.2831858407079646, 0.0, -7.9646017699115035, 0.0, -0.00663716814159292, 0.0, -0.0022123893805309734, 0.0, -0.00663716814159292, -6.716814159292035, -14.238938053097343, 23.690265486725664, -0.1504424778761062, 0.0, -12.168141592920357, -0.0022123893805309734, -0.0022123893805309734, -0.004424778761061947, 0.0, 0.0, -0.011061946902654867, 0.4070796460176991, 0.1929203539823009, -1.6130530973451318, -3.4743362831858406, -0.006858407079646017, 0.0, 0.2528761061946906, -0.5853982300884955, -11.44424778761062, -14.418362831858412, 0.2212389380530973, 0.2482300884955753, 6.53075221238938, -8.265265486725664, -0.019469026548672573, 0.005973451327433629, 0.6179203539823016, 5.325, 0.5444690265486933, 60.14137168141593, -0.0794247787610619, 1.0059734513274334, 7.307743362831863, -3.660398230088496, -0.15398230088495574, 0.01327433628318584, 0.2723451327433627, 6.04712389380531, 7.12920353982301, 70.70995575221238, -0.14712389380530966, -3.465929203539824, 6.199999999999999, 1.1469026548672572, -0.11283185840707964, 0.0008849557522123895, -0.5327433628318581, -2.4561946902654874, 13.530752212389384, -13.800884955752217, 0.1553097345132743, 0.45398230088495567, -2.649557522123895, -3.059070796460177, 0.8719026548672567, 0.0, 0.0973451327433629, -3.301548672566372, -9.650221238938054, -40.87942477876106, 0.0011061946902654772, 0.36371681415929213, 7.03783185840708, -6.382079646017699, -0.05132743362831858, 0.019247787610619467, 0.5196902654867253, 5.631858407079646, -4.376106194690259, 53.08163716814158, -1.85929203539823, 1.4201327433628315, 8.966371681415929, -1.9453539823008876, -0.31769911504424786, 0.008849557522123894, 1.3305309734513278, -3.4761061946902654, 37.338495575221245, -9.018805309734516, -1.0639380530973455, 0.9143805309734514, 14.12212389380531, -8.15110619469026, 0.2185840707964602, 0.01592920353982301, 1.1984513274336284, -5.8179203539823, 9.582743362831858, -60.845796460176985, 1.831858407079646, 0.6535398230088495, 19.160398230088493, -31.049336283185827, -0.032964601769911506, 0.013495575221238938, 1.173230088495575, 1.4053097345132781, -27.930973451327436, 1.277212389380523, -0.10110619469026548, 0.297566371681416, 4.060619469026552, -8.665486725663712, -0.025663716814159295, 0.0028761061946902654, 0.4522123893805312, 3.1641592920353974, -19.081194690265495, 10.071460176991152, 0.18539823008849574, 0.277212389380531, -0.3699115044247758, -4.392477876106194, -0.016814159292035398, 0.0, 0.15331858407079635, 2.9778761061946897, -20.4400442477876, 7.7285398230088305, 0.30243362831858467, 0.27898230088495585, -0.44800884955751563, -3.142699115044246, -0.003982300884955752, 0.0, 0.0851769911504423, 2.9776548672566374, -15.82610619469028, 12.626769911504411, 0.0
8.528761061946902, -0.5508849557522124, 6.811946902654881, 6.829646017699119, 43.07964601769912, 28.847345132743357, 22.792035398230098, -10.949115044247776, 12.995575221238937, -77.67699115044248, -57.1509009009009, -5.913953488372094, -65.71618625277162, -13.592105263157896, -21.463414634146346, 10.371681415929203, -7.628318584070797, 43.07964601769912, -0.1415929203539823, 0.0, 5.9646017699115035, -0.0022123893805309734, -0.011061946902654867, -0.011061946902654867, -0.004424778761061947, -0.004424778761061947, -0.008849557522123894, -5.619469026548672, -6.336283185840706, 63.4070796460177, -0.4336283185840708, -0.1504424778761062, 4.36283185840708, 0.9823008849557522, -0.028761061946902654, -0.0022123893805309734, -0.004424778761061947, -0.004424778761061947, -0.015486725663716814, -16.02654867256637, -17.982300884955755, 23.672566371681416, 57.69911504424779, -0.3185840707964602, 61.48672566371681, -0.0022123893805309734, -0.035398230088495575, -0.0022123893805309734, -0.017699115044247787, -0.011061946902654867, -0.004424778761061947, 2.637168141592923, 44.67256637168141, -7.79646017699115, -2.8230088495575223, -0.07079646017699115, 48.76991150442478, -0.011061946902654867, -0.004424778761061947, -0.004424778761061947, -0.004424778761061947, -0.004424778761061947, -0.008849557522123894, 9.725663716814159, 0.424778761061944, 44.15929203539823, -0.8141592920353983, 0.0, 12.699115044247787, 0.0, -0.017699115044247787, -0.0022123893805309734, -0.0022123893805309734, -0.00663716814159292, -0.0022123893805309734, -7.477876106194691, -10.4070796460177, 76.20353982300885, -0.7699115044247787, -0.22123893805309736, -17.876106194690266, -0.004424778761061947, -0.024336283185840708, 0.0, -0.0022123893805309734, -0.0022123893805309734, -0.0022123893805309734, -12.601769911504425, 88.15929203539824, -42.123893805309734, -3.9911504424778763, -0.11504424778761062, 73.27433628318585, -0.00663716814159292, 0.9845132743362832, -0.008849557522123894, -0.008849557522123894, -0.011061946902654867, -0.022123893805309734, -6.327433628318584, 102.38938053097345, -43.610619469026545, -2.0353982300884956, -0.17699115044247787, 13.371681415929203, -0.008849557522123894, 0.9911504424778761, -0.01327433628318584, -0.008849557522123894, -0.008849557522123894, -0.017699115044247787, -3.814159292035398, 45.53982300884956, -13.681415929203538, -0.5398230088495575, -0.13274336283185842, 4.265486725663717, -0.024336283185840708, -0.004424778761061947, -0.00663716814159292, -0.008849557522123894, -0.00663716814159292, -0.011061946902654867, -3.2389380530973453, 5.920353982300888, 17.584070796460175, -0.5221238938053098, -0.12389380530973451, -7.044247787610619, -0.004424778761061947, -0.01327433628318584, 0.0, 0.0, -0.004424778761061947, -0.017699115044247787, -4.946902654867257, 5.088495575221238, 28.05309734513274, -0.2831858407079646, 0.0, -7.9646017699115035, 0.0, -0.00663716814159292, 0.0, -0.0022123893805309734, 0.0, -0.00663716814159292, -6.716814159292035, -2.2389380530973426, 39.690265486725664, -0.1504424778761062, 0.0, -12.168141592920357, -0.0022123893805309734, -0.0022123893805309734, -0.004424778761061947, 0.0, 0.0, -0.011061946902654867, 0.9070796460176991, -0.20707964601769913, 1.186946902654868, -1.8743362831858406, -0.006858407079646017, 0.0, 0.1528761061946906, 2.714601769911505, -7.54424778761062, 15.081637168141587, 0.5212389380530973, 0.2482300884955753, -3.769247787610619, -0.4652654867256638, -0.019469026548672573, 0.005973451327433629, -0.08207964601769846, -0.775, -16.355530973451305, -22.058628318584063, -0.1794247787610619, 1.0059734513274334, -2.592256637168138, -5.1603982300884965, 1.0460176991150443, 0.01327433628318584, -0.02765486725663724, -3.5528761061946907, -13.170796460176991, -41.69004424778761, -0.5471238938053097, 0.4340707964601753, 1.3999999999999992, 1.1469026548672572, -0.11283185840707964, 0.0008849557522123895, -0.03274336283185808, -0.8561946902654873, 11.430752212389383, 4.099115044247782, 0.5553097345132743, -0.1460176991150443, 3.2504424778761054, -0.8590707964601771, -0.02809734513274336, 0.0, 0.29734513274336294, 2.998451327433628, 1.949778761061947, 25.120575221238937, 0.0011061946902654772, 0.36371681415929213, -4.06216814159292, -2.582079646017699, -0.05132743362831858, 0.019247787610619467, -0.08030973451327472, -2.168141592920354, -26.87610619469026, -42.91836283185841, -1.25929203539823, 1.4201327433628315, 4.366371681415929, 6.554646017699112, -0.31769911504424786, 0.008849557522123894, 0.7305309734513277, -1.5761061946902657, 52.338495575221245, 39.681194690265485, -0.6639380530973453, 0.9143805309734514, 3.3221238938053093, 9.048893805309739, -0.18141592920353983, 0.01592920353982301, 0.2984513274336283, -0.6179203539822997, 67.58274336283186, 55.35420353982301, -0.16814159292035424, 0.6535398230088495, 6.560398230088493, 9.250663716814175, -0.032964601769911506, 0.013495575221238938, 0.5732300884955752, 0.9053097345132781, 71.26902654867257, 68.97721238938053, 0.5988938053097345, 0.297566371681416, 3.560619469026552, 4.334513274336288, -0.025663716814159295, 0.0028761061946902654, -1.5477876106194688, 2.964159292035397, 21.818805309734504, 46.97146017699115, 0.3853982300884957, 0.277212389380531, -0.16991150442477654, 0.6075221238938058, -0.016814159292035398, 0.0, -1.3466814159292038, 1.3778761061946896, 1.0599557522123995, 13.22853982300883, 0.40243362831858465, 0.27898230088495585, -1.848008849557515, -1.1426991150442465, -0.003982300884955752, 0.0, -1.0148230088495578, 0.8776548672566375, -10.926106194690279, -2.6732300884955897, 0.0
12.528761061946902, -0.5508849557522124, -6.188053097345119, -16.17035398230088, 3.079646017699119, -27.152654867256643, -8.207964601769902, 75.05088495575222, -21.004424778761063, 40.323008849557525, 16.8490990990991, 29.086046511627906, 32.28381374722838, -91.40789473684211, 0.5365853658536537, -5.628318584070796, 0.3716814159292028, -20.920353982300885, -0.1415929203539823, 0.0, -2.0353982300884965, -0.0022123893805309734, -0.011061946902654867, -0.011061946902654867, -0.004424778761061947, -0.004424778761061947, -0.008849557522123894, 18.38053097345133, -6.336283185840706, -20.5929203539823, -0.4336283185840708, -0.1504424778761062, 16.36283185840708, -0.017699115044247787, -0.028761061946902654, -0.0022123893805309734, -0.004424778761061947, -0.004424778761061947, -0.015486725663716814, 11.97345132743363, 14.017699115044245, -20.327433628318584, -2.3008849557522124, -0.3185840707964602, 17.486725663716815, -0.0022123893805309734, -0.035398230088495575, -0.0022123893805309734, -0.017699115044247787, -0.011061946902654867, -0.004424778761061947, -45.36283185840708, 4.672566371681416, 40.20353982300885, -2.8230088495575223, -0.07079646017699115, -19.23008849557522, -0.011061946902654867, -0.004424778761061947, -0.004424778761061947, -0.004424778761061947, -0.004424778761061947, -0.008849557522123894, -10.274336283185841, -15.575221238938056, 36.15929203539823, -0.8141592920353983, 0.0, -11.300884955752213, 0.0, -0.017699115044247787, -0.0022123893805309734, -0.0022123893805309734, -0.00663716814159292, -0.0022123893805309734, 16.522123893805308, 1.5929203539823007, -19.79646017699115, -0.7699115044247787, -0.22123893805309736, 18.123893805309734, -0.004424778761061947, -0.024336283185840708, 0.0, -0.0022123893805309734, -0.0022123893805309734, -0.0022123893805309734, -12.601769911504425, -3.840707964601769, 17.876106194690266, -3.9911504424778763, -0.11504424778761062, -6.725663716814161, -0.00663716814159292, -0.015486725663716814, 0.9911504424778761, -0.008849557522123894, -0.011061946902654867, -0.022123893805309734, -6.327433628318584, -9.610619469026545, 12.389380530973455, -2.0353982300884956, -0.17699115044247787, -10.628318584070797, -0.008849557522123894, -0.008849557522123894, -0.01327433628318584, -0.008849557522123894, -0.008849557522123894, -0.017699115044247787, -3.814159292035398, 9.53982300884956, -17.68141592920354, -0.5398230088495575, -0.13274336283185842, 12.265486725663717, 0.9756637168141593, -0.004424778761061947, -0.00663716814159292, -0.008849557522123894, -0.00663716814159292, -0.011061946902654867, 16.761061946902654, -2.079646017699112, -2.415929203539825, -0.5221238938053098, -0.12389380530973451, 16.95575221238938, -0.004424778761061947, -0.01327433628318584, 0.0, 0.0, -0.004424778761061947, -0.017699115044247787, 19.05309734513274, -2.9115044247787623, -3.9469026548672588, -0.2831858407079646, 0.0, 16.035398230088497, 0.0, -0.00663716814159292, 0.0, -0.0022123893805309734, 0.0, -0.00663716814159292, 17.283185840707965, 1.7610619469026574, -28.309734513274336, -0.1504424778761062, 0.0, 15.831858407079643, -0.0022123893805309734, -0.0022123893805309734, -0.004424778761061947, 0.0, 0.0, -0.011061946902654867, 0.10707964601769909, 0.1929203539823009, -1.6130530973451318, 1.0256637168141594, -0.006858407079646017, 0.0, -0.4471238938053094, -0.5853982300884955, -2.4442477876106192, -3.818362831858412, -0.8787610619469027, -1.2517699115044247, 7.630752212389382, 1.3347345132743362, -0.019469026548672573, 0.005973451327433629, 0.1179203539823016, -0.575, 16.744469026548696, 17.941371681415937, -0.7794247787610619, -0.3940265486725665, 7.007743362831862, 1.7396017699115043, -0.15398230088495574, 0.01327433628318584, 0.47234513274336276, 0.14712389380530966, 24.82920353982301, 28.909955752212387, 0.5528761061946903, 5.234070796460175, -5.551115123125783e-16, -8.353097345132742, -0.11283185840707964, 0.0008849557522123895, 0.06725663716814201, 0.5438053097345127, -6.169247787610617, -6.700884955752219, 0.2553097345132743, 0.45398230088495567, -2.649557522123895, -1.8590707964601771, -0.02809734513274336, 0.0, -0.40265486725663713, 0.2984513274336281, -12.950221238938052, -6.37942477876106, -0.7988938053097345, -1.0362831858407078, 7.837831858407079, 1.3179203539823008, -0.05132743362831858, 0.019247787610619467, 0.3196902654867253, -0.2681415929203541, 21.62389380530974, 23.781637168141586, 2.4407079646017698, 1.4201327433628315, -0.5336283185840711, -10.745353982300887, -0.31769911504424786, 0.008849557522123894, -0.7694690265486723, 7.723893805309735, -32.06150442477875, 48.78119469026548, 2.1360619469026547, 0.9143805309734514, -3.1778761061946907, -4.351106194690262, -0.18141592920353983, 0.01592920353982301, -1.1015486725663717, 6.4820796460177, -18.617256637168143, 49.554203539823014, 1.6318584070796458, 0.6535398230088495, -1.7396017699115065, -0.7493362831858246, -0.032964601769911506, 0.013495575221238938, -0.8267699115044248, 5.4053097345132795, 11.569026548672568, 69.37721238938052, -1.1011061946902656, -0.702433628318584, 15.86061946902655, -2.7654867256637123, -0.025663716814159295, 0.0028761061946902654, -0.04778761061946879, -3.135840707964603, 30.218805309734503, 2.671460176991154, -0.8146017699115043, -0.7227876106194691, 8.330088495575223, 1.2075221238938059, -0.016814159292035398, 0.0, 0.05331858407079637, -3.0221238938053103, 19.959955752212398, -9.871460176991171, -0.5975663716814154, -0.5210176991150441, 3.4519911504424847, 1.4573008849557536, -0.003982300884955752, 0.0, -0.014823008849557673, -2.4223451327433625, 12.273893805309722, -11.47323008849559, 0.0
10.528761061946902, -0.5508849557522124, -1.1880530973451187, 5.829646017699119, -6.920353982300881, 49.84734513274336, -74.2079646017699, 17.050884955752224, 24.995575221238937, 58.323008849557525, -112.1509009009009, 23.086046511627906, 45.28381374722838, -13.592105263157896, 32.536585365853654, 10.371681415929203, -27.628318584070797, 19.079646017699115, -0.1415929203539823, 0.0, -2.0353982300884965, -0.0022123893805309734, -0.011061946902654867, -0.011061946902654867, -0.004424778761061947, -0.004424778761061947, -0.008849557522123894, -5.619469026548672, 1.6637168141592937, 7.407079646017699, -0.4336283185840708, -0.1504424778761062, 4.36283185840708, -0.017699115044247787, -0.028761061946902654, -0.0022123893805309734, -0.004424778761061947, -0.004424778761061947, 0.9845132743362832, -16.02654867256637, 18.017699115044245, 3.672566371681416, -2.3008849557522124, -0.3185840707964602, 5.486725663716815, -0.0022123893805309734, -0.035398230088495575, -0.0022123893805309734, -0.017699115044247787, -0.011061946902654867, -0.004424778761061947, -1.3628318584070769, 16.672566371681416, -7.79646017699115, -2.8230088495575223, -0.07079646017699115, 20.76991150442478, -0.011061946902654867, -0.004424778761061947, -0.004424778761061947, -0.004424778761061947, -0.004424778761061947, 0.9911504424778761, 57.72566371681416, -43.575221238938056, -19.84070796460177, -0.8141592920353983, 0.0, -27.300884955752213, 0.0, -0.017699115044247787, -0.0022123893805309734, -0.0022123893805309734, -0.00663716814159292, -0.0022123893805309734, -7.477876106194691, 9.5929203539823, 8.20353982300885, -0.7699115044247787, -0.22123893805309736, 6.123893805309734, -0.004424778761061947, -0.024336283185840708, 0.0, -0.0022123893805309734, -0.0022123893805309734, -0.0022123893805309734, 55.39823008849557, -23.84070796460177, -42.123893805309734, -3.9911504424778763, -0.11504424778761062, -18.72566371681416, -0.00663716814159292, -0.015486725663716814, -0.008849557522123894, -0.008849557522123894, -0.011061946902654867, -0.022123893805309734, 73.67256637168141, -33.610619469026545, -43.610619469026545, -2.0353982300884956, -0.17699115044247787, -22.628318584070797, -0.008849557522123894, -0.008849557522123894, -0.01327433628318584, -0.008849557522123894, -0.008849557522123894, -0.017699115044247787, 84.1858407079646, -42.46017699115044, -41.68141592920354, -0.5398230088495575, -0.13274336283185842, -27.734513274336283, -0.024336283185840708, -0.004424778761061947, -0.00663716814159292, -0.008849557522123894, -0.00663716814159292, -0.011061946902654867, 24.761061946902654, -22.079646017699112, -22.415929203539825, -0.5221238938053098, -0.12389380530973451, 8.955752212389381, -0.004424778761061947, -0.01327433628318584, 0.0, 0.0, -0.004424778761061947, -0.017699115044247787, -4.946902654867257, 1.0884955752212377, 0.053097345132741225, -0.2831858407079646, 0.0, -3.9646017699115035, 0.0, -0.00663716814159292, 0.0, -0.0022123893805309734, 0.0, -0.00663716814159292, -6.716814159292035, -2.2389380530973426, 11.690265486725664, -0.1504424778761062, 0.0, -4.168141592920357, -0.0022123893805309734, -0.0022123893805309734, -0.004424778761061947, 0.0, 0.0, -0.011061946902654867, 0.2070796460176991, -0.3070796460176991, -3.7130530973451323, -0.6743362831858406, -0.006858407079646017, 0.0, 0.1528761061946906, 0.11460176991150461, -14.94424778761062, -10.918362831858412, -0.5787610619469027, 0.2482300884955753, 3.330752212389381, -0.7652654867256639, -0.019469026548672573, 0.005973451327433629, 0.9179203539823014, -2.975, 9.544469026548693, -16.45862831858406, -0.7794247787610619, 1.0059734513274334, 5.107743362831862, 0.5396017699115043, -0.15398230088495574, 0.01327433628318584, 1.172345132743363, -1.9528761061946904, 21.729203539823008, 2.809955752212387, -0.14712389380530966, -1.1659292035398252, 0.6999999999999995, 1.1469026548672572, -0.11283185840707964, 0.0008849557522123895, -0.5327433628318581, 2.443805309734513, 4.430752212389384, 25.49911504424778, 0.7553097345132742, -3.2460176991150447, -3.4495575221238948, 1.240929203539823, -0.02809734513274336, 0.0, -0.6026548672566371, 0.6984513274336281, -17.950221238938052, -9.57942477876106, -0.49889380530973454, 0.36371681415929213, 4.937831858407081, -0.18207964601769921, -0.05132743362831858, 0.019247787610619467, 1.1196902654867253, -2.368141592920354, 17.52389380530974, -1.9183628318584116, -0.15929203539823011, -10.87986725663717, -1.6336283185840712, 6.554646017699112, -0.31769911504424786, 0.008849557522123894, -1.0694690265486722, 0.8238938053097342, -23.06150442477875, -19.11880530973452, 0.8360619469026547, -20.28561946902655, -3.9778761061946906, 9.048893805309739, -0.18141592920353983, 0.01592920353982301, -1.1015486725663717, -0.01792035398229963, -66.81725663716814, -71.64579646017698, 1.0318584070796457, -16.446460176991152, -8.039601769911506, 10.150663716814176, -0.032964601769911506, 0.013495575221238938, -0.6267699115044248, -0.6946902654867215, -66.93097345132743, -80.12278761061948, 0.5988938053097345, -1.302433628318584, -7.639380530973448, 3.0345132743362884, -0.025663716814159295, 0.0028761061946902654, -0.04778761061946879, -0.1358407079646029, -11.281194690265494, -15.328539823008846, -0.21460176991150426, 0.277212389380531, -2.069911504424775, 0.20752212389380587, -0.016814159292035398, 0.0, 0.25331858407079644, -0.7221238938053105, -2.340044247787599, -9.171460176991172, -0.2975663716814153, 0.27898230088495585, 0.25199115044248543, -1.1426991150442465, -0.003982300884955752, 0.0, 0.38517699115044235, -0.6223451327433626, -2.226106194690278, -7.4732300884955905, 0.0
-9.471238938053098, -0.5508849557522124, 23.81194690265488, 16.82964601769912, 11.079646017699119, -18.152654867256643, -6.207964601769902, 31.050884955752224, -17.004424778761063, 52.323008849557525, 29.8490990990991, 3.086046511627906, 42.28381374722838, -13.592105263157896, -1.4634146341463463, -5.628318584070796, -7.628318584070797, 15.079646017699115, -0.1415929203539823, 0.0, -6.0353982300884965, -0.0022123893805309734, -0.011061946902654867, -0.011061946902654867, -0.004424778761061947, -0.004424778761061947, -0.008849557522123894, -5.619469026548672, 1.6637168141592937, -20.5929203539823, -0.4336283185840708, -0.1504424778761062, 0.36283185840708043, -0.017699115044247787, -0.028761061946902654, -0.0022123893805309734, -0.004424778761061947, -0.004424778761061947, -0.015486725663716814, -16.02654867256637, 34.017699115044245, -20.327433628318584, -2.3008849557522124, -0.3185840707964602, -2.5132743362831853, -0.0022123893805309734, -0.035398230088495575, -0.0022123893805309734, -0.017699115044247787, -0.011061946902654867, -0.004424778761061947, 2.637168141592923, 8.672566371681416, -7.79646017699115, -2.8230088495575223, -0.07079646017699115, 24.76991150442478, -0.011061946902654867, -0.004424778761061947, -0.004424778761061947, -0.004424778761061947, -0.004424778761061947, -0.008849557522123894, 53.72566371681416, -43.575221238938056, -19.84070796460177, -0.8141592920353983, 0.0, -27.300884955752213, 0.0, -0.017699115044247787, -0.0022123893805309734, -0.0022123893805309734, -0.00663716814159292, -0.0022123893805309734, -7.477876106194691, 25.5929203539823, -19.79646017699115, -0.7699115044247787, -0.22123893805309736, 2.1238938053097343, -0.004424778761061947, -0.024336283185840708, 0.0, -0.0022123893805309734, -0.0022123893805309734, -0.0022123893805309734, 31.398230088495573, 12.15929203539823, -42.123893805309734, -3.9911504424778763, -0.11504424778761062, 33.27433628318584, -0.00663716814159292, -0.015486725663716814, -0.008849557522123894, -0.008849557522123894, -0.011061946902654867, -0.022123893805309734, -6.327433628318584, -1.6106194690265454, 0.3893805309734546, -2.0353982300884956, -0.17699115044247787, -2.628318584070797, -0.008849557522123894, -0.008849557522123894, -0.01327433628318584, -0.008849557522123894, -0.008849557522123894, -0.017699115044247787, -3.814159292035398, 13.53982300884956, -17.68141592920354, -0.5398230088495575, -0.13274336283185842, 8.265486725663717, -0.024336283185840708, -0.004424778761061947, -0.00663716814159292, -0.008849557522123894, -0.00663716814159292, -0.011061946902654867, -3.2389380530973453, 17.920353982300888, -22.415929203539825, 15.47787610619469, -0.12389380530973451, 12.955752212389381, -0.004424778761061947, -0.01327433628318584, 0.0, 0.0, -0.004424778761061947, -0.017699115044247787, -4.946902654867257, 5.088495575221238, -7.946902654867259, -0.2831858407079646, 0.0, -3.9646017699115035, 0.0, -0.00663716814159292, 0.0, -0.0022123893805309734, 0.0, -0.00663716814159292, -6.716814159292035, 1.7610619469026574, 3.6902654867256643, -0.1504424778761062, 0.0, -4.168141592920357, -0.0022123893805309734, -0.0022123893805309734, -0.004424778761061947, 0.0, 0.0, -0.011061946902654867, 0.007079646017699087, 0.1929203539823009, -2.7130530973451323, -0.5743362831858407, -0.006858407079646017, 0.0, 0.05287610619469052, 0.11460176991150461, -9.44424778761062, -9.018362831858411, 0.9212389380530973, 0.2482300884955753, 3.330752212389381, 1.3347345132743362, -0.019469026548672573, 0.005973451327433629, -0.08207964601769846, 1.3250000000000002, 12.444469026548692, 20.74137168141594, 0.620575221238938, 1.0059734513274334, 4.307743362831862, 1.7396017699115043, -0.15398230088495574, 0.01327433628318584, -0.12765486725663727, 1.2471238938053097, 26.92920353982301, 34.80995575221239, -0.14712389380530966, -1.3659292035398245, 0.1999999999999995, 1.1469026548672572, -0.11283185840707964, 0.0008849557522123895, 0.26725663716814196, -0.5561946902654873, 1.330752212389383, -4.400884955752218, -0.7446902654867258, -3.3460176991150443, -3.4495575221238948, 1.240929203539823, -0.02809734513274336, 0.0, -0.0026548672566371057, -0.6015486725663719, -17.550221238938054, -21.77942477876106, 0.8011061946902656, 0.36371681415929213, 4.7378318584070795, 1.3179203539823008, -0.05132743362831858, 0.019247787610619467, -0.1803097345132747, 1.0318584070796457, 26.62389380530974, 33.281637168141586, 0.3407079646017699, -3.0798672566371685, 0.9663716814159289, 6.554646017699112, -0.31769911504424786, 0.008849557522123894, -0.06946902654867232, 2.4238938053097345, 13.438495575221246, 37.081194690265484, 0.7360619469026546, 0.9143805309734514, -0.6778761061946907, 0.14889380530973817, -0.18141592920353983, 0.01592920353982301, -0.4015486725663717, 6.182079646017701, 3.6827433628318573, 65.15420353982302, 0.23185840707964578, 0.6535398230088495, 4.160398230088493, 4.750663716814175, -0.032964601769911506, 0.013495575221238938, -0.5267699115044249, 6.9053097345132795, 35.969026548672566, 105.37721238938053, 0.09889380530973453, 0.297566371681416, 10.660619469026551, 3.5345132743362884, 0.8743362831858408, 0.0028761061946902654, 0.15221238938053117, 3.3641592920353975, 59.11880530973451, 95.97146017699117, -0.4146017699115042, 0.277212389380531, 9.830088495575223, 0.807522123893806, -0.016814159292035398, 0.0, -0.14668141592920358, 1.9778761061946897, 32.8599557522124, 49.62853982300883, -0.19756637168141533, 0.27898230088495585, 6.551991150442484, -0.14269911504424648, -0.003982300884955752, 0.0, -0.11482300884955765, 1.1776548672566374, 18.67389380530972, 32.92676991150441, 0.0
-1.471238938053098, -0.5508849557522124, 2.8119469026548813, 11.829646017699119, 16.07964601769912, 42.84734513274336, -40.2079646017699, 48.050884955752224, 24.995575221238937, -95.67699115044248, 108.8490990990991, 12.086046511627906, 108.28381374722838, 136.5921052631579, 18.536585365853654, 26.371681415929203, -15.628318584070797, 23.079646017699115, -0.1415929203539823, 0.0, 17.964601769911503, -0.0022123893805309734, -0.011061946902654867, -0.011061946902654867, -0.004424778761061947, -0.004424778761061947, -0.008849557522123894, 14.380530973451329, -34.336283185840706, 15.4070796460177, -0.4336283185840708, -0.1504424778761062, -3.6371681415929196, -0.017699115044247787, -0.028761061946902654, -0.0022123893805309734, -0.004424778761061947, -0.004424778761061947, -0.015486725663716814, -16.02654867256637, -13.982300884955755, 35.67256637168141, -2.3008849557522124, -0.3185840707964602, -18.513274336283185, -0.0022123893805309734, -0.035398230088495575, -0.0022123893805309734, -0.017699115044247787, -0.011061946902654867, -0.004424778761061947, -45.36283185840708, 12.672566371681416, 20.20353982300885, 45.176991150442475, -0.07079646017699115, 36.76991150442478, -0.011061946902654867, -0.004424778761061947, -0.004424778761061947, -0.004424778761061947, -0.004424778761061947, -0.008849557522123894, 21.72566371681416, 4.424778761061944, -19.84070796460177, -0.8141592920353983, 0.0, 28.699115044247787, 0.0, -0.017699115044247787, -0.0022123893805309734, -0.0022123893805309734, -0.00663716814159292, -0.0022123893805309734, -7.477876106194691, -34.4070796460177, 0.20353982300884965, 11.230088495575222, 43.7787610619469, 10.123893805309734, -0.004424778761061947, -0.024336283185840708, 0.0, -0.0022123893805309734, -0.0022123893805309734, -0.0022123893805309734, -12.601769911504425, 20.15929203539823, 1.8761061946902657, -3.9911504424778763, -0.11504424778761062, 9.27433628318584, -0.00663716814159292, -0.015486725663716814, -0.008849557522123894, -0.008849557522123894, -0.011061946902654867, -0.022123893805309734, -6.327433628318584, 10.389380530973455, 0.3893805309734546, -2.0353982300884956, -0.17699115044247787, 9.371681415929203, -0.008849557522123894, -0.008849557522123894, -0.01327433628318584, -0.008849557522123894, -0.008849557522123894, -0.017699115044247787, -3.814159292035398, -6.4601769911504405, 10.318584070796462, -0.5398230088495575, -0.13274336283185842, -15.734513274336283, -0.024336283185840708, -0.004424778761061947, -0.00663716814159292, -0.008849557522123894, -0.00663716814159292, -0.011061946902654867, -3.2389380530973453, -30.079646017699112, 25.584070796460175, -0.5221238938053098, -0.12389380530973451, -23.04424778761062, -0.004424778761061947, -0.01327433628318584, 0.0, 0.0, -0.004424778761061947, -0.017699115044247787, 75.05309734513274, -46.91150442477876, -39.94690265486726, -0.2831858407079646, 0.0, -31.964601769911503, 0.0, -0.00663716814159292, 0.0, -0.0022123893805309734, 0.0, -0.00663716814159292, 33.283185840707965, -38.23893805309734, 11.690265486725664, -0.1504424778761062, 0.0, 11.831858407079643, -0.0022123893805309734, -0.0022123893805309734, -0.004424778761061947, 0.0, 0.0, -0.011061946902654867, -0.2929203539823009, -2.107079646017699, 0.5869469026548675, -0.8743362831858406, -0.006858407079646017, 0.0, 0.5528761061946905, -4.285398230088496, -9.74424778761062, -59.618362831858406, 1.1212389380530974, -0.7517699115044247, -2.4692477876106187, -2.865265486725664, -0.019469026548672573, 0.005973451327433629, 1.1179203539823015, -0.875, -20.755530973451307, -24.258628318584062, 1.4205752212389382, 1.0059734513274334, -1.492256637168138, -3.5603982300884955, -0.15398230088495574, 0.01327433628318584, 0.47234513274336276, 3.1471238938053094, -14.670796460176991, 25.109955752212386, 0.15287610619469033, 5.234070796460175, 0.9999999999999993, -4.153097345132743, 2.5871681415929206, 0.0008849557522123895, -0.8327433628318581, 2.2438053097345128, 17.630752212389382, 32.89911504424778, -0.6446902654867257, -1.6460176991150444, 1.5504424778761052, 1.240929203539823, -0.02809734513274336, 0.0, -0.40265486725663713, -2.401548672566372, 3.249778761061946, -12.779424778761062, 0.5011061946902655, 0.36371681415929213, -4.2621681415929205, 0.11792035398230083, 1.2486725663716816, -4.480752212389381, 1.3196902654867253, 0.1318584070796459, -19.776106194690257, -20.01836283185841, 1.0407079646017698, 1.4201327433628315, 3.166371681415929, -1.2453539823008875, -0.31769911504424786, 0.008849557522123894, -0.9694690265486723, 3.3238938053097344, 12.138495575221247, 45.681194690265485, 2.4360619469026545, 0.9143805309734514, 1.4221238938053098, -5.151106194690261, -0.18141592920353983, 0.01592920353982301, -0.9015486725663717, 4.6820796460177, -1.4172566371681405, 52.054203539823014, 4.531858407079645, 0.6535398230088495, -6.639601769911506, -16.549336283185824, -0.032964601769911506, 0.013495575221238938, -1.0267699115044249, 4.805309734513278, -58.630973451327435, -1.92278761061948, 4.598893805309734, 0.297566371681416, -11.339380530973449, -15.165486725663712, -0.025663716814159295, 0.0028761061946902654, 0.4522123893805312, 1.6641592920353974, -85.08119469026549, -66.32853982300884, 3.3853982300884957, -13.922787610619467, -11.369911504424776, 3.6075221238938058, -0.016814159292035398, 0.0, 0.6533185840707963, 0.1778761061946894, -74.6400442477876, -70.67146017699116, 1.8024336283185847, -3.2210176991150443, -8.048008849557515, -3.5426991150442464, -0.003982300884955752, 0.0, 0.7851769911504424, -2.1223451327433627, -35.726106194690274, -54.87323008849559, 0.0
-2.471238938053098, 0.4491150442477876, -9.188053097345119, -8.170353982300881, -0.9203539823008811, -9.152654867256643, 12.792035398230098, -11.949115044247776, -12.004424778761063, 16.323008849557525, -38.1509009009009, -1.9139534883720941, -15.716186252771621, -13.592105263157896, -3.4634146341463463, -5.628318584070796, -11.628318584070797, 23.079646017699115, -0.1415929203539823, 0.0, -10.035398230088497, -0.0022123893805309734, -0.011061946902654867, -0.011061946902654867, -0.004424778761061947, -0.004424778761061947, -0.008849557522123894, -5.619469026548672, -2.3362831858407063, 19.4070796460177, -0.4336283185840708, -0.1504424778761062, 0.36283185840708043, -0.017699115044247787, -0.028761061946902654, -0.0022123893805309734, -0.004424778761061947, -0.004424778761061947, -0.015486725663716814, -16.02654867256637, 18.017699115044245, -20.327433628318584, -2.3008849557522124, -0.3185840707964602, 17.486725663716815, -0.0022123893805309734, -0.035398230088495575, -0.0022123893805309734, -0.017699115044247787, -0.011061946902654867, -0.004424778761061947, 10.637168141592923, 12.672566371681416, -7.79646017699115, -2.8230088495575223, -0.07079646017699115, 32.76991150442478, -0.011061946902654867, -0.004424778761061947, -0.004424778761061947, -0.004424778761061947, -0.004424778761061947, -0.008849557522123894, 9.725663716814159, -11.575221238938056, 16.15929203539823, -0.8141592920353983, 0.0, 8.699115044247787, 0.0, -0.017699115044247787, -0.0022123893805309734, -0.0022123893805309734, -0.00663716814159292, -0.0022123893805309734, -7.477876106194691, 13.5929203539823, 8.20353982300885, -0.7699115044247787, -0.22123893805309736, 14.123893805309734, -0.004424778761061947, -0.024336283185840708, 0.0, -0.0022123893805309734, -0.0022123893805309734, -0.0022123893805309734, 39.39823008849557, 0.15929203539823078, -42.123893805309734, -3.9911504424778763, -0.11504424778761062, 41.27433628318584, -0.00663716814159292, -0.015486725663716814, -0.008849557522123894, -0.008849557522123894, -0.011061946902654867, -0.022123893805309734, -6.327433628318584, -13.610619469026545, 8.389380530973455, -2.0353982300884956, -0.17699115044247787, -10.628318584070797, -0.008849557522123894, -0.008849557522123894, -0.01327433628318584, -0.008849557522123894, -0.008849557522123894, -0.017699115044247787, -3.814159292035398, -10.46017699115044, 14.318584070796462, -0.5398230088495575, -0.13274336283185842, -7.734513274336283, -0.024336283185840708, -0.004424778761061947, -0.00663716814159292, -0.008849557522123894, -0.00663716814159292, -0.011061946902654867, -3.2389380530973453, -2.079646017699112, 9.584070796460175, -0.5221238938053098, -0.12389380530973451, -3.044247787610619, -0.004424778761061947, -0.01327433628318584, 0.0, 0.0, -0.004424778761061947, -0.017699115044247787, -4.946902654867257, 1.0884955752212377, 16.05309734513274, -0.2831858407079646, 0.0, 0.03539823008849652, 0.0, -0.00663716814159292, 0.0, -0.0022123893805309734, 0.0, -0.00663716814159292, -6.716814159292035, -2.2389380530973426, 23.690265486725664, -0.1504424778761062, 0.0, -4.168141592920357, -0.0022123893805309734, -0.0022123893805309734, -0.004424778761061947, 0.0, 0.0, -0.011061946902654867, 0.10707964601769909, 0.1929203539823009, -2.2130530973451323, -0.2743362831858407, -0.006858407079646017, 0.0, 0.35287610619469056, 0.5146017699115045, -9.044247787610619, -5.518362831858411, -0.37876106194690273, 0.2482300884955753, -3.169247787610619, -0.5652654867256637, -0.019469026548672573, 0.005973451327433629, 0.31792035398230156, -0.775, -10.355530973451307, -17.258628318584062, -0.5794247787610619, 1.0059734513274334, -2.292256637168138, 1.7396017699115043, -0.15398230088495574, 0.01327433628318584, -0.02765486725663724, -1.3528761061946903, 0.9292035398230087, -8.990044247787614, 0.35287610619469034, 0.7340707964601751, 0.49999999999999933, 1.1469026548672572, -0.11283185840707964, 0.0008849557522123895, -0.13274336283185806, -0.05619469026548729, 5.230752212389383, 5.19911504424778, 0.055309734513274283, 0.05398230088495565, -1.5495575221238949, 0.740929203539823, -0.02809734513274336, 0.0, 0.3973451327433629, 0.8984513274336281, -3.750221238938053, 3.02057522123894, -0.39889380530973456, 0.36371681415929213, -2.16216814159292, 0.3179203539823008, -0.05132743362831858, 0.019247787610619467, 0.11969026548672534, -0.5681415929203542, -2.576106194690259, -6.7183628318584105, -0.15929203539823011, -4.879867256637168, -0.33362831858407116, 6.554646017699112, -0.31769911504424786, 0.008849557522123894, -0.2694690265486723, -0.9761061946902658, 3.9384955752212463, -4.118805309734517, 0.3360619469026547, 0.9143805309734514, -3.0778761061946907, 1.9488938053097389, -0.18141592920353983, 0.01592920353982301, -0.4015486725663717, -1.8179203539822997, 0.48274336283185804, -20.545796460176984, -0.16814159292035424, 0.6535398230088495, -5.339601769911506, -1.9493362831858239, -0.032964601769911506, 0.013495575221238938, -0.026769911504424843, -0.8946902654867217, -21.230973451327433, -34.92278761061948, 0.09889380530973453, 0.297566371681416, -5.439380530973448, -3.2654867256637123, -0.025663716814159295, 0.0028761061946902654, -0.04778761061946879, 0.5641592920353973, -22.781194690265494, -15.028539823008845, -0.11460176991150428, 0.277212389380531, -4.269911504424776, -1.2924778761061946, -0.016814159292035398, 0.0, -0.04668141592920361, -0.2221238938053105, -14.540044247787598, -18.17146017699117, 0.10243362831858466, 0.27898230088495585, -2.9480088495575156, -0.4426991150442463, -0.003982300884955752, 0.0, -0.014823008849557673, -0.022345132743362583, -9.62610619469028, -7.773230088495591, 0.0
-0.4712389380530979, -0.5508849557522124, -1.1880530973451187, -13.170353982300881, -6.920353982300881, -155.15265486725664, 47.7920353982301, -61.949115044247776, -90.00442477876106, -34.676991150442475, 33.8490990990991, 48.913953488372094, -24.71618625277162, -13.592105263157896, -11.463414634146346, -5.628318584070796, 20.371681415929203, -20.920353982300885, -0.1415929203539823, 0.0, -2.0353982300884965, -0.0022123893805309734, -0.011061946902654867, -0.011061946902654867, -0.004424778761061947, -0.004424778761061947, -0.008849557522123894, -5.619469026548672, -6.336283185840706, 19.4070796460177, -0.4336283185840708, -0.1504424778761062, 0.36283185840708043, -0.017699115044247787, -0.028761061946902654, -0.0022123893805309734, -0.004424778761061947, -0.004424778761061947, -0.015486725663716814, -16.02654867256637, -9.982300884955755, 31.672566371681416, -2.3008849557522124, -0.3185840707964602, -10.513274336283185, -0.0022123893805309734, -0.035398230088495575, -0.0022123893805309734, -0.017699115044247787, -0.011061946902654867, -0.004424778761061947, 14.637168141592923, 16.672566371681416, -7.79646017699115, -2.8230088495575223, -0.07079646017699115, 36.76991150442478, -0.011061946902654867, -0.004424778761061947, -0.004424778761061947, -0.004424778761061947, -0.004424778761061947, -0.008849557522123894, -10.274336283185841, 16.424778761061944, -19.84070796460177, -0.8141592920353983, 0.0, -7.300884955752213, 0.0, -0.017699115044247787, -0.0022123893805309734, -0.0022123893805309734, -0.00663716814159292, -0.0022123893805309734, -7.477876106194691, 5.592920353982301, 24.20353982300885, -0.7699115044247787, -0.22123893805309736, 10.123893805309734, -0.004424778761061947, -0.024336283185840708, 0.0, -0.0022123893805309734, -0.0022123893805309734, -0.0022123893805309734, -12.601769911504425, 8.15929203539823, -2.1238938053097343, -3.9911504424778763, -0.11504424778761062, -2.725663716814161, -0.00663716814159292, -0.015486725663716814, -0.008849557522123894, -0.008849557522123894, -0.011061946902654867, -0.022123893805309734, 53.67256637168141, -33.610619469026545, -43.610619469026545, -2.0353982300884956, -0.17699115044247787, -22.628318584070797, -0.008849557522123894, -0.008849557522123894, -0.01327433628318584, -0.008849557522123894, -0.008849557522123894, -0.017699115044247787, 76.1858407079646, -42.46017699115044, -41.68141592920354, -0.5398230088495575, -0.13274336283185842, -27.734513274336283, -0.024336283185840708, -0.004424778761061947, -0.00663716814159292, -0.008849557522123894, -0.00663716814159292, -0.011061946902654867, -3.2389380530973453, -10.079646017699112, -6.415929203539825, -0.5221238938053098, -0.12389380530973451, -11.044247787610619, -0.004424778761061947, -0.01327433628318584, 0.0, 0.0, -0.004424778761061947, -0.017699115044247787, -4.946902654867257, 17.088495575221238, -39.94690265486726, -0.2831858407079646, 0.0, 8.035398230088497, 0.0, -0.00663716814159292, 0.0, -0.0022123893805309734, 0.0, -0.00663716814159292, -6.716814159292035, 17.761061946902657, -28.309734513274336, -0.1504424778761062, 0.0, 3.8318584070796433, -0.0022123893805309734, -0.0022123893805309734, -0.004424778761061947, 0.0, 0.0, -0.011061946902654867, 0.10707964601769909, 0.1929203539823009, -2.313053097345132, 1.0256637168141594, -0.006858407079646017, 0.0, -0.6471238938053094, -0.6853982300884955, -0.5442477876106189, -6.618362831858413, -0.1787610619469027, 0.2482300884955753, -3.869247787610619, -0.5652654867256637, -0.019469026548672573, 0.005973451327433629, -0.9820796460176985, -0.875, -12.855530973451307, -20.95862831858406, -0.2794247787610619, 1.0059734513274334, -2.892256637168138, -1.460398230088496, -0.15398230088495574, 0.01327433628318584, -0.42765486725663726, -0.05287610619469035, -10.070796460176991, -11.490044247787614, -0.14712389380530966, 1.4340707964601753, -0.10000000000000053, 1.1469026548672572, -0.11283185840707964, 0.0008849557522123895, 0.467256637168142, 0.7438053097345126, 5.630752212389384, 10.69911504424778, 0.2553097345132743, 0.45398230088495567, -0.5495575221238949, 1.240929203539823, -0.02809734513274336, 0.0, 0.0973451327433629, -0.7015486725663719, 3.249778761061946, -0.5794247787610605, -0.09889380530973453, 0.36371681415929213, -1.5621681415929203, -1.6820796460176992, -0.05132743362831858, 0.019247787610619467, -0.4803097345132747, -0.3681415929203541, -7.176106194690259, -10.518362831858411, -0.15929203539823011, 1.4201327433628315, -0.8336283185840712, 2.7546460176991125, -0.31769911504424786, 0.008849557522123894, -0.7694690265486723, -0.8761061946902657, 12.338495575221247, 1.7811946902654832, -0.06393805309734535, -6.585619469026549, -3.9778761061946906, 9.048893805309739, -0.18141592920353983, 0.01592920353982301, 0.2984513274336283, -0.8179203539822997, -4.517256637168142, -12.945796460176982, 2.331858407079646, -22.64646017699115, -8.039601769911506, 10.150663716814176, -0.032964601769911506, 0.013495575221238938, 0.37323008849557515, 3.3053097345132785, -84.93097345132743, -46.42278761061948, 2.7988938053097345, 0.297566371681416, -9.139380530973447, -1.865486725663712, -0.025663716814159295, 0.0028761061946902654, 0.05221238938053119, 4.8641592920353975, -21.281194690265494, 24.97146017699115, -0.6146017699115043, 0.277212389380531, 13.130088495575224, 3.6075221238938058, -0.016814159292035398, 0.0, 0.25331858407079644, 0.07787610619468954, 60.5599557522124, 62.428539823008826, -0.3975663716814153, 0.27898230088495585, 4.051991150442484, 1.4573008849557536, -0.003982300884955752, 0.0, -1.2148230088495575, -0.8223451327433625, 25.17389380530972, 18.726769911504412, 0.0
0.5287610619469021, -0.5508849557522124, 4.811946902654881, -9.170353982300881, -6.920353982300881, -10.152654867256643, -20.207964601769902, -0.949115044247776, -29.004424778761063, 43.323008849557525, 38.8490990990991, 28.086046511627906, 38.28381374722838, -13.592105263157896, -7.463414634146346, -5.628318584070796, -3.628318584070797, -20.920353982300885, -0.1415929203539823, 0.0, -10.035398230088497, -0.0022123893805309734, -0.011061946902654867, -0.011061946902654867, -0.004424778761061947, -0.004424778761061947, -0.008849557522123894, -5.619469026548672, -2.3362831858407063, 15.4070796460177, -0.4336283185840708, -0.1504424778761062, -3.6371681415929196, -0.017699115044247787, -0.028761061946902654, -0.0022123893805309734, -0.004424778761061947, -0.004424778761061947, -0.015486725663716814, -16.02654867256637, 10.017699115044245, 15.672566371681416, -2.3008849557522124, -0.3185840707964602, -2.5132743362831853, -0.0022123893805309734, -0.035398230088495575, -0.0022123893805309734, -0.017699115044247787, -0.011061946902654867, -0.004424778761061947, 6.637168141592923, 12.672566371681416, -7.79646017699115, -2.8230088495575223, -0.07079646017699115, 24.76991150442478, -0.011061946902654867, -0.004424778761061947, -0.004424778761061947, -0.004424778761061947, -0.004424778761061947, -0.008849557522123894, 37.72566371681416, -11.575221238938056, -19.84070796460177, -0.8141592920353983, 0.0, 32.69911504424779, 0.0, -0.017699115044247787, -0.0022123893805309734, -0.0022123893805309734, -0.00663716814159292, -0.0022123893805309734, -7.477876106194691, 1.5929203539823007, 12.20353982300885, -0.7699115044247787, -0.22123893805309736, -1.8761061946902657, -0.004424778761061947, -0.024336283185840708, 0.0, -0.0022123893805309734, -0.0022123893805309734, -0.0022123893805309734, -12.601769911504425, -7.840707964601769, 5.876106194690266, 16.008849557522122, -0.11504424778761062, 53.27433628318584, -0.00663716814159292, -0.015486725663716814, -0.008849557522123894, -0.008849557522123894, -0.011061946902654867, -0.022123893805309734, -6.327433628318584, -13.610619469026545, 4.389380530973455, 17.964601769911503, -0.17699115044247787, 53.3716814159292, -0.008849557522123894, -0.008849557522123894, -0.01327433628318584, -0.008849557522123894, -0.008849557522123894, -0.017699115044247787, -3.814159292035398, -18.46017699115044, 10.318584070796462, -0.5398230088495575, -0.13274336283185842, -15.734513274336283, -0.024336283185840708, -0.004424778761061947, -0.00663716814159292, -0.008849557522123894, -0.00663716814159292, -0.011061946902654867, -3.2389380530973453, 9.920353982300888, -14.415929203539825, -0.5221238938053098, -0.12389380530973451, 8.955752212389381, -0.004424778761061947, -0.01327433628318584, 0.0, 0.0, -0.004424778761061947, -0.017699115044247787, -4.946902654867257, 5.088495575221238, -3.9469026548672588, -0.2831858407079646, 0.0, 0.03539823008849652, 0.0, -0.00663716814159292, 0.0, -0.0022123893805309734, 0.0, -0.00663716814159292, -6.716814159292035, -2.2389380530973426, 7.690265486725664, -0.1504424778761062, 0.0, -4.168141592920357, -0.0022123893805309734, -0.0022123893805309734, -0.004424778761061947, 0.0, 0.0, -0.011061946902654867, -0.2929203539823009, 0.1929203539823009, -3.813053097345132, 1.0256637168141594, -0.006858407079646017, 0.0, -0.2471238938053094, -0.2853982300884955, -8.64424778761062, -9.918362831858412, -0.07876106194690272, 0.2482300884955753, 2.630752212389382, -0.3652654867256637, -0.019469026548672573, 0.005973451327433629, 0.41792035398230143, 1.225, 5.444469026548692, 15.64137168141594, -0.0794247787610619, 1.0059734513274334, 4.007743362831862, 0.5396017699115043, -0.15398230088495574, 0.01327433628318584, 0.7723451327433627, 1.6471238938053097, 14.729203539823008, 27.009955752212388, 0.05287610619469035, -0.7659292035398249, 0.1999999999999995, 1.1469026548672572, -0.11283185840707964, 0.0008849557522123895, -0.13274336283185806, -0.4561946902654874, 1.7307522123893833, -2.8008849557522204, 0.1553097345132743, -2.1460176991150446, -3.049557522123895, 1.240929203539823, -0.02809734513274336, 0.0, -0.5026548672566371, -1.0015486725663718, -11.050221238938054, -17.27942477876106, -0.09889380530973453, 0.36371681415929213, 3.7378318584070795, -0.18207964601769921, -0.05132743362831858, 0.019247787610619467, 0.6196902654867253, 1.331858407079646, 10.12389380530974, 20.08163716814159, 0.6407079646017699, 1.4201327433628315, -1.1336283185840712, -2.145353982300887, 1.4823008849557522, 0.008849557522123894, -0.2694690265486723, -0.5761061946902658, 0.13849557522124556, -6.3188053097345165, 1.4360619469026545, 0.9143805309734514, -3.1778761061946907, -0.6511061946902608, 2.8185840707964602, 0.01592920353982301, -0.4015486725663717, -1.8179203539822997, -1.4172566371681405, -22.445796460176982, 0.8318584070796459, 0.6535398230088495, -6.639601769911506, -1.649336283185825, -0.032964601769911506, 0.013495575221238938, 0.17323008849557517, 0.5053097345132787, -20.730973451327433, -21.82278761061948, 0.09889380530973453, 0.297566371681416, -4.239380530973449, 3.6345132743362885, -0.025663716814159295, 0.0028761061946902654, -0.14778761061946877, 2.1641592920353974, 6.4188053097345055, 27.271460176991155, -0.21460176991150426, 0.277212389380531, 0.13008849557522417, 1.0075221238938057, -0.016814159292035398, 0.0, -0.14668141592920358, 1.0778761061946893, 7.459955752212402, 14.22853982300883, -0.09756637168141535, 0.27898230088495585, 0.3519911504424851, -0.24269911504424635, -0.003982300884955752, 0.0, 0.0851769911504423, 1.0776548672566373, 0.17389380530972076, 11.626769911504411, 0.0
25.528761061946902, -0.5508849557522124, -1.1880530973451187, -4.170353982300881, -3.920353982300881, 12.847345132743357, 18.792035398230098, -21.949115044247776, -4.004424778761063, -2.6769911504424755, 8.8490990990991, 22.086046511627906, -2.716186252771621, -13.592105263157896, -16.463414634146346, -5.628318584070796, 0.3716814159292028, 15.079646017699115, -0.1415929203539823, 0.0, -2.0353982300884965, -0.0022123893805309734, -0.011061946902654867, -0.011061946902654867, -0.004424778761061947, -0.004424778761061947, -0.008849557522123894, -5.619469026548672, -2.3362831858407063, 19.4070796460177, -0.4336283185840708, -0.1504424778761062, 0.36283185840708043, -0.017699115044247787, -0.028761061946902654, -0.0022123893805309734, -0.004424778761061947, -0.004424778761061947, -0.015486725663716814, -16.02654867256637, -9.982300884955755, 19.672566371681416, -2.3008849557522124, -0.3185840707964602, -14.513274336283185, -0.0022123893805309734, -0.035398230088495575, -0.0022123893805309734, -0.017699115044247787, -0.011061946902654867, -0.004424778761061947, 6.637168141592923, 16.672566371681416, -7.79646017699115, -2.8230088495575223, -0.07079646017699115, 24.76991150442478, -0.011061946902654867, -0.004424778761061947, -0.004424778761061947, -0.004424778761061947, -0.004424778761061947, -0.008849557522123894, -10.274336283185841, 44.424778761061944, -19.84070796460177, -0.8141592920353983, 0.0, -7.300884955752213, 0.0, -0.017699115044247787, -0.0022123893805309734, -0.0022123893805309734, -0.00663716814159292, -0.0022123893805309734, -7.477876106194691, -2.4070796460176993, 20.20353982300885, -0.7699115044247787, -0.22123893805309736, 2.1238938053097343, -0.004424778761061947, -0.024336283185840708, 0.0, -0.0022123893805309734, -0.0022123893805309734, -0.0022123893805309734, 31.398230088495573, -23.84070796460177, -42.123893805309734, -3.9911504424778763, -0.11504424778761062, -18.72566371681416, -0.00663716814159292, -0.015486725663716814, -0.008849557522123894, -0.008849557522123894, -0.011061946902654867, -0.022123893805309734, -6.327433628318584, -1.6106194690265454, 8.389380530973455, -2.0353982300884956, -0.17699115044247787, -6.628318584070797, -0.008849557522123894, -0.008849557522123894, -0.01327433628318584, -0.008849557522123894, -0.008849557522123894, -0.017699115044247787, -3.814159292035398, 9.53982300884956, -5.681415929203538, -0.5398230088495575, -0.13274336283185842, 0.2654867256637168, -0.024336283185840708, -0.004424778761061947, -0.00663716814159292, -0.008849557522123894, -0.00663716814159292, -0.011061946902654867, 12.761061946902654, 1.9203539823008882, -6.415929203539825, -0.5221238938053098, -0.12389380530973451, 8.955752212389381, -0.004424778761061947, -0.01327433628318584, 0.0, 0.0, -0.004424778761061947, -0.017699115044247787, 11.053097345132743, 1.0884955752212377, -3.9469026548672588, -0.2831858407079646, 0.0, 8.035398230088497, 0.0, -0.00663716814159292, 0.0, -0.0022123893805309734, 0.0, -0.00663716814159292, 9.283185840707965, -2.2389380530973426, 7.690265486725664, -0.1504424778761062, 0.0, 7.831858407079643, -0.0022123893805309734, -0.0022123893805309734, -0.004424778761061947, 0.0, 0.0, -0.011061946902654867, 0.3070796460176991, 0.1929203539823009, -0.313053097345132, 0.025663716814159354, -0.006858407079646017, 0.0, -0.14712389380530944, -0.2853982300884955, -0.8442477876106196, -2.818362831858412, 0.02123893805309729, 0.2482300884955753, -0.06924778761061923, -0.6652654867256638, -0.019469026548672573, 0.005973451327433629, 0.41792035398230143, -0.375, -2.5555309734513063, -6.758628318584062, -0.2794247787610619, 1.0059734513274334, -1.392256637168138, 0.8396017699115043, -0.15398230088495574, 0.01327433628318584, 0.47234513274336276, -0.05287610619469035, -1.1707964601769913, -1.8900442477876132, -0.14712389380530966, -1.0659292035398247, 0.5999999999999994, 1.1469026548672572, -0.11283185840707964, 0.0008849557522123895, -0.13274336283185806, 0.14380530973451267, 2.030752212389384, 3.899115044247779, 0.2553097345132743, 0.45398230088495567, -1.0495575221238949, 1.240929203539823, -0.02809734513274336, 0.0, -0.40265486725663713, -0.001548672566371867, 5.049778761061947, 5.02057522123894, -0.19889380530973452, 0.36371681415929213, -0.26216814159292046, -0.38207964601769917, -0.05132743362831858, 0.019247787610619467, 0.4196902654867254, -0.16814159292035413, -2.1761061946902593, -5.118362831858411, 0.2407079646017699, -5.0798672566371685, -1.6336283185840712, 6.554646017699112, -0.31769911504424786, 0.008849557522123894, -0.5694690265486724, -0.6761061946902658, 4.438495575221246, -1.0188053097345158, -0.8639380530973454, 0.9143805309734514, -2.0778761061946907, 6.148893805309738, -0.18141592920353983, 0.01592920353982301, -0.3015486725663717, -1.9179203539822998, 13.482743362831858, -9.445796460176982, -1.6681415929203542, 0.6535398230088495, 2.860398230088494, 5.650663716814176, -0.032964601769911506, 0.013495575221238938, -0.026769911504424843, -2.3946902654867217, 28.469026548672566, -2.92278761061948, -1.2011061946902655, -0.10243362831858405, 3.460619469026552, 3.0345132743362884, -0.025663716814159295, 0.0028761061946902654, -0.04778761061946879, -1.2358407079646028, 19.118805309734505, 6.771460176991155, -0.4146017699115042, -0.222787610619469, -1.0699115044247751, 1.4075221238938056, -0.016814159292035398, 0.0, -0.04668141592920361, -0.9221238938053105, 2.5599557522123995, -5.7714601769911695, -0.09756637168141535, -0.12101769911504417, -2.148008849557515, 0.15730088495575356, -0.003982300884955752, 0.0, -0.014823008849557673, -0.5223451327433626, -5.426106194690279, -9.773230088495591, 0.0
9.528761061946902, -0.5508849557522124, 6.811946902654881, 15.829646017699119, 9.079646017699119, 17.847345132743357, 4.792035398230098, -8.949115044247776, -4.004424778761063, 38.323008849557525, 1.8490990990990994, 1.0860465116279059, 22.28381374722838, -13.592105263157896, -23.463414634146346, -5.628318584070796, -3.628318584070797, 7.079646017699115, -0.1415929203539823, 0.0, -6.0353982300884965, -0.0022123893805309734, -0.011061946902654867, -0.011061946902654867, -0.004424778761061947, -0.004424778761061947, -0.008849557522123894, 14.380530973451329, 25.663716814159294, -20.5929203539823, -0.4336283185840708, -0.1504424778761062, 12.36283185840708, -0.017699115044247787, 0.9712389380530974, -0.0022123893805309734, -0.004424778761061947, -0.004424778761061947, -0.015486725663716814, 11.97345132743363, 30.017699115044245, -20.327433628318584, -2.3008849557522124, -0.3185840707964602, 17.486725663716815, -0.0022123893805309734, -0.035398230088495575, -0.0022123893805309734, -0.017699115044247787, -0.011061946902654867, -0.004424778761061947, -45.36283185840708, -3.327433628318584, 40.20353982300885, 17.17699115044248, -0.07079646017699115, -27.23008849557522, -0.011061946902654867, -0.004424778761061947, -0.004424778761061947, -0.004424778761061947, -0.004424778761061947, -0.008849557522123894, -10.274336283185841, -11.575221238938056, 48.15929203539823, -0.8141592920353983, 0.0, -11.300884955752213, 0.0, -0.017699115044247787, -0.0022123893805309734, -0.0022123893805309734, -0.00663716814159292, -0.0022123893805309734, 12.52212389380531, 37.5929203539823, -19.79646017699115, -0.7699115044247787, -0.22123893805309736, 10.123893805309734, -0.004424778761061947, -0.024336283185840708, 0.0, -0.0022123893805309734, -0.0022123893805309734, -0.0022123893805309734, -12.601769911504425, 16.15929203539823, 21.876106194690266, -3.9911504424778763, -0.11504424778761062, 5.274336283185839, -0.00663716814159292, -0.015486725663716814, -0.008849557522123894, -0.008849557522123894, -0.011061946902654867, -0.022123893805309734, -6.327433628318584, 10.389380530973455, 12.389380530973455, -2.0353982300884956, -0.17699115044247787, 5.371681415929203, -0.008849557522123894, -0.008849557522123894, -0.01327433628318584, -0.008849557522123894, -0.008849557522123894, -0.017699115044247787, -3.814159292035398, 5.5398230088495595, 6.318584070796462, -0.5398230088495575, -0.13274336283185842, 4.265486725663717, -0.024336283185840708, -0.004424778761061947, -0.00663716814159292, -0.008849557522123894, -0.00663716814159292, -0.011061946902654867, -3.2389380530973453, 9.920353982300888, 1.5840707964601748, -0.5221238938053098, -0.12389380530973451, 4.955752212389381, -0.004424778761061947, -0.01327433628318584, 0.0, 0.0, -0.004424778761061947, -0.017699115044247787, 11.053097345132743, 1.0884955752212377, 4.053097345132741, -0.2831858407079646, 0.0, 8.035398230088497, 0.0, -0.00663716814159292, 0.0, -0.0022123893805309734, 0.0, -0.00663716814159292, 13.283185840707965, -2.2389380530973426, 11.690265486725664, -0.1504424778761062, 0.0, 11.831858407079643, -0.0022123893805309734, -0.0022123893805309734, -0.004424778761061947, 0.0, 0.0, -0.011061946902654867, 0.3070796460176991, 0.1929203539823009, -1.813053097345132, -0.1743362831858406, -0.006858407079646017, 0.0, -0.34712389380530945, 0.8146017699115046, -5.444247787610619, 0.48163716814158875, 0.5212389380530973, -0.4517699115044247, 0.9307522123893808, 1.3347345132743362, -0.019469026548672573, 0.005973451327433629, -0.5820796460176985, 0.7250000000000001, 14.744469026548693, 18.941371681415937, 0.12057522123893812, 0.40597345132743345, 0.6077433628318616, 1.7396017699115043, -0.15398230088495574, 0.01327433628318584, -0.3276548672566373, 0.04712389380530968, 11.22920353982301, 11.109955752212386, -0.34712389380530967, 5.234070796460175, -0.5000000000000006, -4.753097345132743, 0.28716814159292037, 0.0008849557522123895, 0.16725663716814199, -0.7561946902654872, 2.2307522123893833, -2.4008849557522183, 0.1553097345132743, 0.45398230088495567, -2.7495575221238946, -0.0590707964601771, -0.02809734513274336, 0.0, -0.0026548672566371057, 0.4984513274336282, -8.750221238938053, -5.379424778761061, 0.0011061946902654772, -0.23628318584070784, 1.33783185840708, 1.3179203539823008, -0.05132743362831858, 0.019247787610619467, -0.1803097345132747, 0.43185840707964596, 16.823893805309744, 18.381637168141587, -0.4592920353982301, 1.4201327433628315, 0.8663716814159288, 1.154646017699112, -0.31769911504424786, 0.008849557522123894, 0.3305309734513277, -0.4761061946902657, 6.538495575221248, 1.081194690265482, -0.2639380530973454, 0.9143805309734514, 1.5221238938053094, 1.1488938053097382, -0.18141592920353983, 0.01592920353982301, -0.0015486725663716929, 0.3820796460177003, 7.982743362831858, 6.1542035398230155, 0.6318584070796457, 0.6535398230088495, 2.860398230088494, -2.849336283185824, -0.032964601769911506, 0.013495575221238938, -0.22676991150442485, 3.3053097345132785, 3.1690265486725675, 25.777212389380523, 0.09889380530973453, 0.297566371681416, 4.56061946902655, -2.0654867256637113, -0.025663716814159295, 0.0028761061946902654, -0.14778761061946877, 4.464159292035397, 15.818805309734504, 59.77146017699115, -0.014601769911504248, -0.42278761061946896, 4.130088495575224, 0.007522123893805688, -0.016814159292035398, 0.0, -0.14668141592920358, 2.2778761061946895, 10.959955752212402, 24.72853982300883, 0.20243362831858466, -0.6210176991150442, 1.851991150442485, 0.3573008849557535, -0.003982300884955752, 0.0, -0.014823008849557673, 1.4776548672566376, 3.6738938053097208, 19.426769911504408, 0.0
-15.471238938053098, 0.4491150442477876, -6.188053097345119, -14.170353982300881, 6.079646017699119, 5.8473451327433565, 39.7920353982301, -1.949115044247776, -7.004424778761063, -23.676991150442475, 11.8490990990991, -9.913953488372094, -6.716186252771621, -13.592105263157896, -7.463414634146346, -5.628318584070796, 0.3716814159292028, 15.079646017699115, -0.1415929203539823, 0.0, -2.0353982300884965, -0.0022123893805309734, -0.011061946902654867, -0.011061946902654867, -0.004424778761061947, -0.004424778761061947, -0.008849557522123894, -5.619469026548672, -6.336283185840706, 31.4070796460177, -0.4336283185840708, -0.1504424778761062, -3.6371681415929196, -0.017699115044247787, -0.028761061946902654, -0.0022123893805309734, -0.004424778761061947, -0.004424778761061947, -0.015486725663716814, -16.02654867256637, 2.0176991150442447, 47.67256637168141, -2.3008849557522124, -0.3185840707964602, 1.4867256637168147, -0.0022123893805309734, -0.035398230088495575, -0.0022123893805309734, -0.017699115044247787, -0.011061946902654867, -0.004424778761061947, 2.637168141592923, 28.672566371681416, -7.79646017699115, -2.8230088495575223, -0.07079646017699115, 20.76991150442478, -0.011061946902654867, -0.004424778761061947, -0.004424778761061947, -0.004424778761061947, -0.004424778761061947, -0.008849557522123894, -10.274336283185841, 56.424778761061944, -19.84070796460177, -0.8141592920353983, 0.0, 8.699115044247787, 0.0, -0.017699115044247787, -0.0022123893805309734, -0.0022123893805309734, -0.00663716814159292, -0.0022123893805309734, -7.477876106194691, -14.4070796460177, 40.20353982300885, -0.7699115044247787, -0.22123893805309736, -9.876106194690266, -0.004424778761061947, -0.024336283185840708, 0.0, -0.0022123893805309734, -0.0022123893805309734, -0.0022123893805309734, -12.601769911504425, 0.15929203539823078, -2.1238938053097343, 28.008849557522122, -0.11504424778761062, 53.27433628318584, -0.00663716814159292, -0.015486725663716814, -0.008849557522123894, -0.008849557522123894, -0.011061946902654867, -0.022123893805309734, -6.327433628318584, 2.3893805309734546, 0.3893805309734546, -2.0353982300884956, -0.17699115044247787, 1.3716814159292028, -0.008849557522123894, -0.008849557522123894, -0.01327433628318584, -0.008849557522123894, -0.008849557522123894, -0.017699115044247787, -3.814159292035398, 21.53982300884956, -5.681415929203538, -0.5398230088495575, -0.13274336283185842, 12.265486725663717, -0.024336283185840708, -0.004424778761061947, -0.00663716814159292, -0.008849557522123894, -0.00663716814159292, -0.011061946902654867, -3.2389380530973453, 1.9203539823008882, 9.584070796460175, -0.5221238938053098, -0.12389380530973451, -3.044247787610619, -0.004424778761061947, -0.01327433628318584, 0.0, 0.0, -0.004424778761061947, -0.017699115044247787, -4.946902654867257, 1.0884955752212377, 16.05309734513274, -0.2831858407079646, 0.0, -7.9646017699115035, 0.0, -0.00663716814159292, 0.0, -0.0022123893805309734, 0.0, -0.00663716814159292, -6.716814159292035, -2.2389380530973426, 27.690265486725664, -0.1504424778761062, 0.0, -4.168141592920357, -0.0022123893805309734, -0.0022123893805309734, -0.004424778761061947, 0.0, 0.0, -0.011061946902654867, 0.3070796460176991, 0.1929203539823009, 1.7869469026548677, 0.2256637168141593, -0.006858407079646017, 0.0, 0.05287610619469052, 0.8146017699115046, 4.955752212389381, 12.38163716814159, 0.2212389380530973, 0.2482300884955753, 2.630752212389382, -1.865265486725664, -0.019469026548672573, 0.005973451327433629, -0.18207964601769844, 1.625, -1.7555309734513074, 12.241371681415941, -0.0794247787610619, 1.0059734513274334, -1.0922566371681381, -1.8603982300884958, -0.15398230088495574, 0.01327433628318584, -0.22765486725663725, 0.7471238938053097, -9.670796460176991, -3.7900442477876135, -0.24712389380530966, -3.3659292035398245, 0.9999999999999993, 1.1469026548672572, -0.11283185840707964, 0.0008849557522123895, 0.16725663716814199, -1.0561946902654875, -0.4692477876106178, -9.700884955752223, 0.4553097345132743, 0.45398230088495567, -0.649557522123895, 1.240929203539823, -0.02809734513274336, 0.0, 0.29734513274336294, 0.4984513274336282, 8.549778761061948, 12.920575221238938, -0.19889380530973452, 0.36371681415929213, 1.7378318584070795, -1.482079646017699, -0.05132743362831858, 0.019247787610619467, -0.2803097345132747, 0.6318584070796459, -6.376106194690259, -0.9183628318584116, 0.6407079646017699, 1.4201327433628315, -0.43362831858407125, -5.345353982300888, 1.982300884955752, 0.008849557522123894, 0.43053097345132774, -2.3761061946902657, -0.06150442477875373, -22.71880530973452, 0.23606194690265458, 0.9143805309734514, -1.3778761061946905, 1.2488938053097387, -0.18141592920353983, 0.01592920353982301, 0.3984513274336283, -1.2179203539822998, 5.482743362831858, -10.145796460176983, -0.9681415929203543, 0.6535398230088495, -2.5396017699115063, 6.550663716814176, -0.032964601769911506, 0.013495575221238938, 0.37323008849557515, -0.09469026548672188, 19.469026548672566, 12.977212389380519, 0.09889380530973453, 0.297566371681416, -0.2393805309734489, 3.834513274336288, -0.025663716814159295, 0.0028761061946902654, -0.2477876106194688, 0.764159292035397, 9.418805309734505, 16.47146017699115, 0.28539823008849574, 0.277212389380531, 1.8300884955752235, 1.307522123893806, -0.016814159292035398, 0.0, -0.14668141592920358, 1.7778761061946895, 7.3599557522124, 24.528539823008828, 0.30243362831858467, 0.27898230088495585, 3.651991150442484, -0.34269911504424644, -0.003982300884955752, 0.0, -0.21482300884955768, 1.9776548672566376, 6.073893805309719, 25.326769911504407, 0.0
17.528761061946902, 0.4491150442477876, -11.188053097345119, 19.82964601769912, -6.920353982300881, 38.84734513274336, -25.207964601769902, -31.949115044247776, 35.99557522123894, -37.676991150442475, 36.1509009009009, 15.086046511627906, -37.71618625277162, -13.592105263157896, 10.536585365853654, -5.628318584070796, 24.371681415929203, -20.920353982300885, -0.1415929203539823, 0.0, -2.0353982300884965, -0.0022123893805309734, -0.011061946902654867, -0.011061946902654867, -0.004424778761061947, -0.004424778761061947, -0.008849557522123894, 18.38053097345133, 9.663716814159294, -20.5929203539823, -0.4336283185840708, -0.1504424778761062, 4.36283185840708, -0.017699115044247787, 0.9712389380530974, -0.0022123893805309734, -0.004424778761061947, -0.004424778761061947, -0.015486725663716814, 51.97345132743363, -17.982300884955755, -20.327433628318584, -2.3008849557522124, -0.3185840707964602, 45.48672566371681, -0.0022123893805309734, -0.035398230088495575, -0.0022123893805309734, -0.017699115044247787, -0.011061946902654867, -0.004424778761061947, 26.637168141592923, -19.327433628318584, -7.79646017699115, -2.8230088495575223, -0.07079646017699115, -31.23008849557522, -0.011061946902654867, -0.004424778761061947, -0.004424778761061947, -0.004424778761061947, -0.004424778761061947, -0.008849557522123894, -10.274336283185841, 24.424778761061944, -19.84070796460177, -0.8141592920353983, 0.0, 8.699115044247787, 0.0, -0.017699115044247787, -0.0022123893805309734, -0.0022123893805309734, -0.00663716814159292, -0.0022123893805309734, 48.52212389380531, -22.4070796460177, -19.79646017699115, -0.7699115044247787, -0.22123893805309736, 38.123893805309734, -0.004424778761061947, -0.024336283185840708, 0.0, -0.0022123893805309734, -0.0022123893805309734, -0.0022123893805309734, -12.601769911504425, 0.15929203539823078, 21.876106194690266, -3.9911504424778763, -0.11504424778761062, -2.725663716814161, -0.00663716814159292, -0.015486725663716814, -0.008849557522123894, -0.008849557522123894, -0.011061946902654867, -0.022123893805309734, -6.327433628318584, -1.6106194690265454, 8.389380530973455, -2.0353982300884956, -0.17699115044247787, -2.628318584070797, -0.008849557522123894, -0.008849557522123894, -0.01327433628318584, -0.008849557522123894, -0.008849557522123894, -0.017699115044247787, -3.814159292035398, 1.5398230088495595, -5.681415929203538, -0.5398230088495575, -0.13274336283185842, 0.2654867256637168, -0.024336283185840708, -0.004424778761061947, -0.00663716814159292, -0.008849557522123894, -0.00663716814159292, -0.011061946902654867, -3.2389380530973453, 1.9203539823008882, 1.5840707964601748, -0.5221238938053098, -0.12389380530973451, 0.9557522123893811, -0.004424778761061947, -0.01327433628318584, 0.0, 0.0, -0.004424778761061947, -0.017699115044247787, -4.946902654867257, -6.911504424778762, 8.053097345132741, -0.2831858407079646, 0.0, -3.9646017699115035, 0.0, -0.00663716814159292, 0.0, -0.0022123893805309734, 0.0, -0.00663716814159292, -6.716814159292035, -10.238938053097343, -12.309734513274336, 19.849557522123895, 0.0, -8.168141592920357, -0.0022123893805309734, -0.0022123893805309734, -0.004424778761061947, 0.0, 0.0, -0.011061946902654867, 0.10707964601769909, 0.1929203539823009, -0.313053097345132, 1.0256637168141594, -0.006858407079646017, 0.0, -0.34712389380530945, 0.21460176991150448, 7.755752212389382, 6.481637168141589, -0.1787610619469027, -0.6517699115044248, -4.569247787610619, 1.3347345132743362, -0.019469026548672573, 0.005973451327433629, -0.18207964601769844, -1.275, -9.655530973451306, -19.15862831858406, -0.0794247787610619, -2.0940265486725664, -2.6922566371681382, 1.7396017699115043, -0.15398230088495574, 0.01327433628318584, 0.17234513274336272, -1.6528761061946904, -12.27079646017699, -20.890044247787614, -0.24712389380530966, 0.7340707964601751, -0.9000000000000006, 1.1469026548672572, -0.11283185840707964, 0.0008849557522123895, -0.03274336283185808, 1.9438053097345127, -0.5692477876106157, 14.09911504424778, -0.3446902654867257, 0.45398230088495567, 1.850442477876105, 1.240929203539823, -0.02809734513274336, 0.0, -0.20265486725663712, -1.5015486725663718, 12.549778761061948, 0.42057522123893953, 0.6011061946902655, -0.736283185840708, -3.66216814159292, 1.3179203539823008, -0.05132743362831858, 0.019247787610619467, 0.019690265486725256, -0.06814159292035404, -11.17610619469026, -10.618362831858411, -0.3592920353982301, 1.4201327433628315, -0.7336283185840712, 0.4546460176991127, -0.31769911504424786, 0.008849557522123894, -0.2694690265486723, 0.023893805309734256, 0.23849557522124698, -1.5188053097345158, -0.5639380530973453, 0.9143805309734514, -2.3778761061946905, 4.948893805309739, -0.18141592920353983, 0.01592920353982301, -0.4015486725663717, -0.41792035398229954, 9.882743362831858, -0.34579646017698273, -0.5681415929203542, 0.6535398230088495, -2.639601769911506, 4.550663716814176, -0.032964601769911506, 0.013495575221238938, -0.6267699115044248, 0.6053097345132783, 10.069026548672568, 6.277212389380523, -0.0011061946902654759, 0.297566371681416, -2.1393805309734493, 1.4345132743362887, -0.025663716814159295, 0.0028761061946902654, -0.2477876106194688, 1.264159292035397, 0.8188053097345058, 7.971460176991151, 0.08539823008849573, 0.277212389380531, -4.369911504424776, -0.29247787610619413, -0.016814159292035398, 0.0, -0.24668141592920362, -0.5221238938053105, -13.1400442477876, -18.57146017699117, 0.20243362831858466, 0.27898230088495585, -4.148008849557515, 0.5573008849557536, 0.49601769911504423, 0.0, -0.21482300884955768, -0.8223451327433625, -9.72610619469028, -16.67323008849559, 0.0
32.5287610619469, 0.4491150442477876, -16.18805309734512, -8.170353982300881, 4.079646017699119, 22.847345132743357, -6.207964601769902, -37.949115044247776, -10.004424778761063, 10.323008849557525, 9.8490990990991, 17.086046511627906, 7.283813747228379, -13.592105263157896, -0.4634146341463463, -5.628318584070796, 8.371681415929203, -20.920353982300885, -0.1415929203539823, 0.0, 5.9646017699115035, -0.0022123893805309734, -0.011061946902654867, -0.011061946902654867, -0.004424778761061947, -0.004424778761061947, -0.008849557522123894, -5.619469026548672, 13.663716814159294, -20.5929203539823, -0.4336283185840708, -0.1504424778761062, -7.63716814159292, -0.017699115044247787, -0.028761061946902654, -0.0022123893805309734, -0.004424778761061947, -0.004424778761061947, -0.015486725663716814, 3.9734513274336294, 22.017699115044245, -20.327433628318584, -2.3008849557522124, -0.3185840707964602, 1.4867256637168147, -0.0022123893805309734, 0.9646017699115044, -0.0022123893805309734, -0.017699115044247787, -0.011061946902654867, -0.004424778761061947, 6.637168141592923, -19.327433628318584, -7.79646017699115, -2.8230088495575223, -0.07079646017699115, -31.23008849557522, -0.011061946902654867, -0.004424778761061947, -0.004424778761061947, -0.004424778761061947, -0.004424778761061947, -0.008849557522123894, -10.274336283185841, -11.575221238938056, -19.84070796460177, -0.8141592920353983, 0.0, -15.300884955752213, 0.0, -0.017699115044247787, -0.0022123893805309734, -0.0022123893805309734, -0.00663716814159292, -0.0022123893805309734, -7.477876106194691, 17.5929203539823, -19.79646017699115, -0.7699115044247787, -0.22123893805309736, -9.876106194690266, -0.004424778761061947, -0.024336283185840708, 0.0, -0.0022123893805309734, -0.0022123893805309734, -0.0022123893805309734, -12.601769911504425, -3.840707964601769, 17.876106194690266, -3.9911504424778763, -0.11504424778761062, -10.72566371681416, -0.00663716814159292, -0.015486725663716814, -0.008849557522123894, -0.008849557522123894, -0.011061946902654867, -0.022123893805309734, -6.327433628318584, -5.610619469026545, 16.389380530973455, -2.0353982300884956, -0.17699115044247787, -6.628318584070797, -0.008849557522123894, -0.008849557522123894, -0.01327433628318584, -0.008849557522123894, -0.008849557522123894, -0.017699115044247787, -3.814159292035398, -6.4601769911504405, 14.318584070796462, -0.5398230088495575, -0.13274336283185842, -3.734513274336283, -0.024336283185840708, -0.004424778761061947, -0.00663716814159292, -0.008849557522123894, -0.00663716814159292, -0.011061946902654867, -3.2389380530973453, 1.9203539823008882, 9.584070796460175, -0.5221238938053098, -0.12389380530973451, 0.9557522123893811, -0.004424778761061947, -0.01327433628318584, 0.0, 0.0, -0.004424778761061947, -0.017699115044247787, -4.946902654867257, 1.0884955752212377, 4.053097345132741, -0.2831858407079646, 0.0, -3.9646017699115035, 0.0, -0.00663716814159292, 0.0, -0.0022123893805309734, 0.0, -0.00663716814159292, -6.716814159292035, 9.761061946902657, -28.309734513274336, -0.1504424778761062, 0.0, -4.168141592920357, -0.0022123893805309734, -0.0022123893805309734, -0.004424778761061947, 0.0, 0.0, -0.011061946902654867, -0.19292035398230092, 0.1929203539823009, -1.6130530973451318, 1.0256637168141594, -0.006858407079646017, 0.0, -0.4471238938053094, -0.5853982300884955, -0.6442477876106203, -4.918362831858412, 0.1212389380530973, 0.2482300884955753, -2.4692477876106187, 1.3347345132743362, -0.019469026548672573, 0.005973451327433629, -0.3820796460176985, -0.875, -1.0555309734513063, -8.258628318584062, 0.22057522123893808, 0.5059734513274334, -2.392256637168138, 1.7396017699115043, -0.15398230088495574, 0.01327433628318584, -0.02765486725663724, -0.15287610619469033, 0.32920353982300865, -1.2900442477876135, -0.04712389380530965, 0.8340707964601748, -0.9000000000000006, 1.1469026548672572, -0.11283185840707964, 0.0008849557522123895, 0.36725663716814194, 0.7438053097345126, 4.230752212389383, 9.69911504424778, -0.7446902654867258, 0.45398230088495567, -1.8495575221238947, 1.240929203539823, -0.02809734513274336, 0.0, -0.20265486725663712, -0.10154867256637184, -2.9502212389380533, -3.479424778761061, 0.5011061946902655, 0.36371681415929213, -1.86216814159292, 1.3179203539823008, -0.05132743362831858, 0.019247787610619467, -0.1803097345132747, -0.5681415929203542, 0.4238938053097403, -4.318362831858412, 0.14070796460176993, 1.4201327433628315, -0.9336283185840712, -2.845353982300888, -0.31769911504424786, 0.008849557522123894, -0.2694690265486723, -0.27610619469026576, -8.761504424778753, -12.918805309734518, 0.13606194690265472, 0.9143805309734514, -2.3778761061946905, -3.4511061946902615, -0.18141592920353983, 0.01592920353982301, -0.4015486725663717, -0.5179203539822996, -17.31725663716814, -18.245796460176983, 0.6318584070796457, 0.6535398230088495, -5.639601769911506, -1.3493362831858242, -0.032964601769911506, 0.013495575221238938, -0.7267699115044248, -1.6946902654867215, -19.63097345132743, -31.72278761061948, -0.30110619469026545, 0.297566371681416, -3.439380530973448, -2.0654867256637113, -0.025663716814159295, 0.0028761061946902654, -1.1477876106194689, -1.635840707964603, -13.581194690265495, -28.428539823008848, -0.31460176991150424, 0.277212389380531, -0.8699115044247758, 0.6075221238938058, -0.016814159292035398, 0.0, -0.7466814159292037, -2.8221238938053106, 0.7599557522124023, -24.57146017699117, -0.4975663716814154, 0.27898230088495585, -2.348008849557515, 1.4573008849557536, -0.003982300884955752, 0.0, -0.7148230088495577, -2.1223451327433627, 0.7738938053097222, -16.37323008849559, 0.0
